time,flux,flux_err,centroid_col,centroid_row,cadenceno,quality
1653.951346630794,1820.45361328125,1.2023295164108276,636.5412502893419,248.63224712461937,0,0
1653.972179905187,1822.099609375,1.2028770446777344,636.5419372846133,248.63213538009893,1,0
1653.9930131800454,1821.676025390625,1.2037022113800049,636.5427885462673,248.63240608396205,2,0
1654.0138464553702,1821.42138671875,1.2030305862426758,636.5425337395058,248.63156510612768,3,0
1654.034679730928,1823.817626953125,1.2042531967163086,636.5423779111226,248.63216331227542,4,0
1654.0555130071834,1829.3724365234375,1.2052321434020996,636.5423487905789,248.63120412493637,5,0
1654.0763462839054,1839.9190673828125,1.2091203927993774,636.5427229723942,248.63061668388443,6,0
1654.0971795613254,1851.831298828125,1.212160587310791,636.5425193085761,248.62968123298555,7,0
1654.1180128394435,1871.05224609375,1.217943787574768,636.54265054157,248.6282650124024,8,0
1654.138846118028,1886.453857421875,1.223248839378357,636.5425300071245,248.6271865938735,9,0
1654.1596793975436,1900.03173828125,1.22749662399292,636.5422328118234,248.62507847705052,10,0
1654.1805126777576,1918.868896484375,1.2328680753707886,636.5421228606177,248.62484075383662,11,0
1654.2013459589025,1939.00390625,1.2392295598983765,636.5418708512545,248.62397477512414,12,0
1654.222179240513,1960.453369140625,1.2453879117965698,636.5420154776758,248.62241518293175,13,0
1654.243012523289,1976.583740234375,1.2505080699920654,636.5412523358507,248.62089222855437,14,0
1654.2638458065294,1991.990234375,1.2551730871200562,636.5411423091895,248.6190587254228,15,0
1654.2846790907015,2009.1619873046875,1.2610125541687012,636.5410317299504,248.61903180346624,16,0
1654.305512375573,2020.310791015625,1.2636064291000366,636.5406133730053,248.61836651423116,17,0
1654.3263456613745,2029.31298828125,1.2662379741668701,636.5407985060514,248.61751242109963,18,0
1654.347178947642,2041.255615234375,1.2698718309402466,636.5416391978073,248.61693071855308,19,0
1654.368012235073,2051.115478515625,1.2725836038589478,636.5404684790062,248.61610691067133,20,0
1654.3888455229705,2059.771484375,1.276006817817688,636.5406141132019,248.61537262126126,21,0
1654.4096788115676,2072.0205078125,1.2788423299789429,636.5402043166981,248.61444137595916,22,0
1654.4305121010939,2078.22314453125,1.2808011770248413,636.5404175284485,248.61364421581592,23,0
1654.4513453910865,2089.90625,1.2842592000961304,636.5408022406106,248.61259745035662,24,0
1654.472178682011,2101.9853515625,1.2874886989593506,636.5404770148479,248.61260437607118,25,0
1654.493011973401,2111.54052734375,1.290725588798523,636.5411031296574,248.61113769775704,26,0
1654.5346785582765,2142.57275390625,1.2993425130844116,636.5399839767147,248.61034183312674,27,0
1654.555511851529,2158.46630859375,1.3041592836380005,636.5400471667596,248.60996388110138,28,0
1654.57634514548,2168.67822265625,1.3069669008255005,636.5403510405266,248.6097706369965,29,0
1654.5971784398964,2174.494873046875,1.3087387084960938,636.5400592259944,248.60952781104538,30,0
1654.6180117350114,2176.518310546875,1.309155821800232,636.5404030686867,248.60890304888864,31,0
1654.6388450305926,2180.27587890625,1.310413122177124,636.5400239182748,248.6087758008871,32,0
1654.6596783266386,2177.795654296875,1.3095515966415405,636.5398379344931,248.60953099862326,33,0
1654.6805116233836,2176.8525390625,1.3093624114990234,636.5405706744705,248.60957284496817,34,0
1654.7013449203614,2175.782958984375,1.3096773624420166,636.5403097753401,248.6092545147238,35,0
1654.722178218038,2174.54345703125,1.3085722923278809,636.5406643338389,248.6093736001069,36,0
1654.7430115159466,2177.233642578125,1.3093234300613403,636.5411602348253,248.6095975094722,37,0
1654.7638448145535,2179.111572265625,1.3097941875457764,636.5407922103298,248.6097559267732,38,0
1654.7846781133949,2174.674560546875,1.3087430000305176,636.5414473749945,248.60918645558831,39,0
1654.8055114127014,2177.0693359375,1.3092749118804932,636.5411675045159,248.61004736760418,40,0
1654.8263447122395,2172.697265625,1.3086374998092651,636.5414665400958,248.60946684640976,41,0
1654.847178012477,2165.0400390625,1.3059711456298828,636.5413783501901,248.6106222437428,42,0
1654.868011312715,2157.335205078125,1.3038232326507568,636.5418851133006,248.61058734592928,43,0
1654.888844613651,2145.5869140625,1.3010112047195435,636.5416578434068,248.61037625035218,44,0
1654.9096779145866,2135.501220703125,1.297383189201355,636.5419926922482,248.61134186607475,45,0
1654.9305112159882,2129.324462890625,1.29581618309021,636.5422282297067,248.61176875460131,46,0
1654.951344517623,2123.9501953125,1.2944005727767944,636.543441555456,248.61230341276135,47,0
1654.9721778197224,2117.1484375,1.2918133735656738,636.5429362309499,248.61293254949354,48,0
1654.993011121822,2112.551025390625,1.2910363674163818,636.5432805657547,248.6133166219982,49,0
1655.013844424388,2116.638916015625,1.2918353080749512,636.5428099133851,248.61285226349585,50,0
1655.034677727187,2111.08837890625,1.290340542793274,636.5431920431992,248.61301448083026,51,0
1655.055511030218,2115.1943359375,1.2914495468139648,636.5430583231262,248.61193630050246,52,0
1655.0763443334824,2122.6025390625,1.2939281463623047,636.5430184905305,248.61270674750236,53,0
1655.0971776367464,2124.21337890625,1.2938625812530518,636.5430731309315,248.61206813919398,54,0
1655.118010940477,2126.25439453125,1.2946946620941162,636.5427964857142,248.61189247431835,55,0
1655.1388442444395,2130.87255859375,1.2958489656448364,636.542860183954,248.6126211524356,56,0
1655.1596775484015,2126.318603515625,1.2945417165756226,636.5432193901739,248.61212077041807,57,0
1655.180510852597,2125.69580078125,1.294663906097412,636.5426240402671,248.6115450478646,58,0
1655.201344156793,2124.03076171875,1.2938297986984253,636.5434179106279,248.61281090410034,59,0
1655.222177461454,2119.798583984375,1.2930094003677368,636.5433775745895,248.6128074290298,60,0
1655.2430107661144,2117.274658203125,1.2921595573425293,636.5439750981192,248.61251990087584,61,0
1655.263844070776,2109.4033203125,1.2898554801940918,636.5428667711175,248.61222404305684,62,0
1655.2846773756705,2105.51025390625,1.288430094718933,636.5440429919632,248.6120695962626,63,0
1655.305510680797,2104.86962890625,1.288637399673462,636.5434643479256,248.61343319400024,64,0
1655.326343985924,2098.466796875,1.2871503829956055,636.5430763485246,248.61345560723743,65,0
1655.347177291051,2098.3994140625,1.2870409488677979,636.5434387683181,248.61324828587266,66,0
1655.3680105964104,2095.752197265625,1.2858814001083374,636.5439181235388,248.61370534077662,67,0
1655.3888439017705,2096.349609375,1.2860275506973267,636.543958568,248.6130816414042,68,0
1655.4096772073626,2099.527587890625,1.286679983139038,636.5433130389381,248.6135954714515,69,0
1655.4305105129552,2097.334228515625,1.2861502170562744,636.5439380911711,248.61218543093383,70,0
1655.4513438185475,2100.236328125,1.2870376110076904,636.5433169781395,248.61369171972834,71,0
1655.47217712414,2105.68896484375,1.288710594177246,636.5442313866291,248.61293090634538,72,0
1655.4930104297325,2112.84130859375,1.2906683683395386,636.5431881873976,248.61257961165205,73,0
1655.513843735558,2113.9453125,1.2908192873001099,636.5437068931667,248.61305395023746,74,0
1655.534677041384,2120.901123046875,1.2929733991622925,636.5435155770938,248.61277638473385,75,0
1655.5555103472084,2124.44091796875,1.2944217920303345,636.543410117092,248.61231901545787,76,0
1655.576343653033,2126.549072265625,1.294819712638855,636.5430213728619,248.61236968799744,77,0
1655.5971769588596,2130.107177734375,1.2955652475357056,636.5439970416917,248.61229849239862,78,0
1655.6180102646845,2131.32861328125,1.2957841157913208,636.5434687446234,248.61225280706975,79,0
1655.63884357051,2129.08740234375,1.2952840328216553,636.5435969926641,248.61219277556887,80,0
1655.659676876335,2127.285888671875,1.2947405576705933,636.5435378538688,248.61214163234104,81,0
1655.680510182161,2125.67333984375,1.2942544221878052,636.5441874719614,248.61242399294892,82,0
1655.701343487986,2121.48046875,1.2932028770446777,636.5433537439767,248.61276212992476,83,0
1655.7221767938115,2116.844482421875,1.2919131517410278,636.5434040714622,248.61241428644746,84,0
1655.743010099636,2117.397216796875,1.2918869256973267,636.5436745541465,248.61226704481186,85,0
1655.7638434052296,2115.313720703125,1.291333556175232,636.5437872684831,248.61257042527836,86,0
1655.7846767110545,2117.484619140625,1.2925764322280884,636.5443769451405,248.61311062550377,87,0
1655.805510016647,2116.360595703125,1.2916396856307983,636.5440148412439,248.61241100508235,88,0
1655.8263433222385,2109.89013671875,1.2898139953613281,636.5439436086789,248.61255778392083,89,0
1655.847176627831,2105.6845703125,1.2883201837539673,636.5438951265895,248.61314499997914,90,0
1655.8680099334242,2102.343505859375,1.2876780033111572,636.5436419916668,248.61390106650654,91,0
1655.888843238784,2096.196044921875,1.285809874534607,636.5437348496433,248.61379782061977,92,0
1655.909676544376,2089.359375,1.2835406064987183,636.54380574306,248.6133143476245,93,0
1655.9305098495029,2081.728271484375,1.2817060947418213,636.5440074153614,248.61480950734037,94,0
1655.951343154863,2072.994140625,1.2789480686187744,636.5451791570918,248.61389675213144,95,0
1655.97217645999,2068.71484375,1.2778100967407227,636.5455774037182,248.6153254941077,96,0
1655.9930097651165,2062.39111328125,1.275937557220459,636.5442997908034,248.6154615880526,97,0
1656.013843070243,2058.30126953125,1.2745882272720337,636.544366642106,248.61572546716195,98,0
1656.0346763751377,2052.58447265625,1.2730568647384644,636.544426962792,248.6166258156816,99,0
1656.0555096800315,2050.944091796875,1.2725410461425781,636.5446742800303,248.6159154088598,100,0
1656.076342984692,2046.405029296875,1.2710572481155396,636.5449758114787,248.61614752313716,101,0
1656.0971762893535,2050.145263671875,1.2722431421279907,636.5449940130243,248.61619258115167,102,0
1656.118009593782,2053.84814453125,1.2733932733535767,636.5448828044299,248.616574296867,103,0
1656.138842898444,2052.184814453125,1.2727992534637451,636.5446879124038,248.61662601393402,104,0
1656.1596762026384,2049.811767578125,1.2721515893936157,636.5450603940268,248.61660658270713,105,0
1656.180509506834,2051.3369140625,1.2725032567977905,636.5447730025769,248.61675634078196,106,0
1656.20134281103,2050.39404296875,1.2736564874649048,636.5447562182574,248.61719153163918,107,0
1656.2221761149924,2051.503173828125,1.2727047204971313,636.5447958528171,248.61654254567767,108,0
1656.243009418955,2048.4541015625,1.2720171213150024,636.5456120266474,248.61665544162733,109,0
1656.2638427226846,2043.3453369140625,1.2700729370117188,636.5453488795833,248.6164064224538,110,0
1656.284676026181,2040.0257568359375,1.2689990997314453,636.5454796228626,248.6178646390166,111,0
1656.305509329679,2033.281005859375,1.267013430595398,636.5456016844456,248.6174319811717,112,0
1656.3263426329436,2027.134521484375,1.2654753923416138,636.5453138498277,248.61771997061837,113,0
1656.347175936207,2022.018310546875,1.2637584209442139,636.5451705268185,248.61836626002287,114,0
1656.3680092392374,2017.2674560546875,1.2627928256988525,636.5458636539811,248.61814736719805,115,0
1656.3888425422688,2014.458740234375,1.2620283365249634,636.546357415743,248.6183832990576,116,0
1656.409675845069,2013.0439453125,1.2611751556396484,636.545338095245,248.6186237391194,117,0
1656.430509147634,2010.4390869140625,1.2602200508117676,636.545521052621,248.61893906785488,118,0
1656.451342450199,2012.329833984375,1.2611266374588013,636.545269455771,248.6187393865674,119,0
1656.472175752533,2015.5633544921875,1.2622699737548828,636.5459889761648,248.61852030963882,120,0
1656.4930090546331,2018.3023681640625,1.2627452611923218,636.5455975598788,248.61863193711986,121,0
1656.5138423567325,2019.62646484375,1.2631398439407349,636.545350512367,248.61818936244543,122,0
1656.5346756585996,2025.087890625,1.2647686004638672,636.5454630694559,248.61807611070122,123,0
1656.555508960233,2026.9771728515625,1.265321135520935,636.5456779968102,248.61811092167014,124,0
1656.5763422618684,2032.351318359375,1.2673158645629883,636.5456994711161,248.61772388191932,125,0
1656.5971755632704,2035.2415771484375,1.2677767276763916,636.5454235244096,248.61739628958694,126,0
1656.6180088644385,2039.4580078125,1.2704740762710571,636.5451059391019,248.6177655914442,127,0
1656.6388421656065,2036.974609375,1.268234133720398,636.5454473827847,248.6172244077029,128,0
1656.65967546631,2036.017822265625,1.2690573930740356,636.5448003718195,248.6172382756868,129,0
1656.680508767014,2037.099853515625,1.2683783769607544,636.5454965273688,248.61650240215647,130,0
1656.7013420674834,2034.0384521484375,1.2671908140182495,636.5451521087969,248.6174309210019,131,0
1656.722175367953,2032.495849609375,1.2669496536254883,636.5453944383631,248.61772800288477,132,0
1656.743008667958,2031.213623046875,1.2663284540176392,636.5450063498733,248.6175895157257,133,0
1656.763841967963,2028.995849609375,1.266979455947876,636.5453795058868,248.61742788000194,134,0
1656.784675267735,2030.12451171875,1.2665311098098755,636.5450582594442,248.61737426025718,135,0
1656.8055085675055,2030.516357421875,1.266250491142273,636.5458093788682,248.6176524994905,136,0
1656.8263418668116,2030.822265625,1.2662980556488037,636.5447169584269,248.61732738071768,137,0
1656.8471751661186,2026.99072265625,1.2651735544204712,636.5457102868587,248.61826987213814,138,0
1656.8680084649586,2026.5765380859375,1.2652195692062378,636.5458970955711,248.61802563771272,139,0
1656.888841763799,2021.920166015625,1.2652482986450195,636.5455488158652,248.6180350612821,140,0
1656.9096750626386,2019.458740234375,1.2637434005737305,636.5453381244466,248.6179301590011,141,0
1656.930508361013,2012.3912353515625,1.2614127397537231,636.5452266442,248.61884689153365,142,0
1656.9513416591558,2004.395263671875,1.2584551572799683,636.5455248006608,248.61926040100107,143,0
1656.9721749572975,2001.3900146484375,1.2575160264968872,636.5452050171185,248.61930724782525,144,0
1656.9930082549736,1991.73876953125,1.2547109127044678,636.5455440514665,248.61973821431837,145,0
1657.0138415526499,1991.5635986328125,1.2547681331634521,636.5467858530941,248.61954920441076,146,0
1657.034674850094,1986.9810791015625,1.2533035278320312,636.5457926379781,248.61996139543362,147,0
1657.0555081473044,1982.174072265625,1.2535114288330078,636.5452432785626,248.6201653901319,148,0
1657.0763414442815,1984.0250244140625,1.2523895502090454,636.5455029347265,248.62058352072796,149,0
1657.097174741026,1980.637939453125,1.2513244152069092,636.5466740667988,248.62082470641994,150,0
1657.118008037771,1985.41650390625,1.2527869939804077,636.5459409775824,248.62077875957328,151,0
1657.138841334051,1984.51220703125,1.2526676654815674,636.5460648205673,248.6200776656437,152,0
1657.15967463033,1986.142822265625,1.2532601356506348,636.5459555531299,248.61953610224947,153,0
1657.1805079261435,1987.67041015625,1.2537932395935059,636.5454045281348,248.61996434808435,154,0
1657.201341221956,1985.7259521484375,1.2532610893249512,636.5451530998182,248.61954386122588,155,0
1657.2221745173051,1986.611572265625,1.2532970905303955,636.5459731747965,248.62007351212543,156,0
1657.2430078126536,1985.748046875,1.252995252609253,636.5454398156345,248.6205214305456,157,0
1657.263841107768,1984.87548828125,1.2529534101486206,636.5458256253037,248.6196969883334,158,0
1657.2846744026506,1981.5057373046875,1.2520381212234497,636.5458870309216,248.62056264301944,159,0
1657.3055076970666,1977.676513671875,1.2506663799285889,636.5463389550825,248.62031663725102,160,0
1657.3263409914834,1971.7236328125,1.2488529682159424,636.5457555428433,248.62107360781954,161,0
1657.368007579618,1956.968017578125,1.2443225383758545,636.5463011155176,248.61952235607413,162,0
1657.388840873336,1961.4625244140625,1.2456128597259521,636.5463557721504,248.62058259924308,163,0
1657.47217404588,1951.425537109375,1.2424042224884033,636.5461715031041,248.6202128814835,164,0
1657.5138406305214,1959.17333984375,1.2453644275665283,636.5461804282588,248.61985418530168,165,0
1657.5346739226102,1962.182373046875,1.2460123300552368,636.5462266764414,248.62005308134192,166,0
1657.5555072144666,1965.4871826171875,1.2467683553695679,636.5453516216204,248.62012160406468,167,0
1657.597173797478,1970.2618408203125,1.2483054399490356,636.5455891076948,248.6185131891216,168,0
1657.6180070884025,1965.710693359375,1.2469512224197388,636.5459292718881,248.61899865628374,169,0
1657.6805069602435,1973.790283203125,1.2492680549621582,636.5461841707336,248.62005016917874,170,0
1657.722173540229,1971.276611328125,1.2485148906707764,636.545559973318,248.62103093388706,171,0
1657.743006829756,1968.714111328125,1.2478958368301392,636.5454961480573,248.6189824826916,172,0
1657.7638401192835,1972.1318359375,1.248918890953064,636.5453723650793,248.61957816880033,173,0
1657.7846734083446,1968.03125,1.2475415468215942,636.5455669362674,248.62025546032677,174,0
1657.805506697173,1968.57470703125,1.2485885620117188,636.5457689406126,248.62031499704463,175,0
1657.8263399857697,1969.547607421875,1.2480130195617676,636.5454383436174,248.61969118537914,176,0
1657.8471732741325,1967.706787109375,1.2480857372283936,636.5461274153579,248.62037101256655,177,0
1657.8680065622625,1971.46826171875,1.248546838760376,636.5457666089504,248.620138315971,178,0
1657.8888398501595,1969.5751953125,1.2480418682098389,636.5460824022173,248.62056144621923,179,0
1657.9096731375905,1966.1429443359375,1.246977686882019,636.5454233076377,248.61949262177103,180,0
1657.930506425023,1963.61181640625,1.246763825416565,636.5457333213643,248.62048548953533,181,0
1657.9513397119895,1960.214599609375,1.245337724685669,636.5460421228494,248.62012050881805,182,0
1657.972172998955,1955.124267578125,1.2440447807312012,636.5459335593853,248.62037606130426,183,0
1657.9930062854546,1952.89208984375,1.2430747747421265,636.5457946016312,248.62131409170544,184,0
1658.013839571722,1949.323974609375,1.2424570322036743,636.5466219508942,248.62017428042148,185,0
1658.0346728577574,1950.936279296875,1.2426484823226929,636.5465119662222,248.62127211931872,186,0
1658.0555061435596,1947.362060546875,1.241380214691162,636.5463990938263,248.62115532768877,187,0
1658.076339429128,1949.2763671875,1.242095708847046,636.5465225476802,248.62072877104333,188,0
1658.0971727142314,1948.2086181640625,1.2417516708374023,636.5465699127021,248.62161669452325,189,0
1658.1180059993344,1949.5218505859375,1.2421257495880127,636.5464985310714,248.6214555314326,190,0
1658.1388392839726,1950.7872314453125,1.242415428161621,636.5465977746238,248.62181289617342,191,0
1658.1596725683776,1951.532958984375,1.2425917387008667,636.5464131919281,248.62139886149697,192,0
1658.180505852549,1958.260009765625,1.2447978258132935,636.5468102425211,248.62171558825403,193,0
1658.2013391364885,1952.177978515625,1.2428675889968872,636.5458138233525,248.6207779997326,194,0
1658.2221724201945,1959.18310546875,1.2450748682022095,636.5462346230081,248.62031593504847,195,0
1658.2430057034348,1954.576904296875,1.243644118309021,636.5460619305874,248.6197804269751,196,0
1658.2638389866765,1953.9642333984375,1.2448782920837402,636.5464978798173,248.61997219944556,197,0
1658.284672269451,1952.350830078125,1.2429087162017822,636.5462246504208,248.6205210215199,198,0
1658.3055055519935,1951.22412109375,1.2440896034240723,636.5469743896998,248.62246102894642,199,0
1658.3263388343025,1945.595947265625,1.241214632987976,636.5465079699105,248.62077723740305,200,0
