time,flux,flux_err,centroid_col,centroid_row,cadenceno,quality
1437.9950553847075,2647.4423828125,1.4667199850082397,285.53505287845985,1860.6311835780111,0,0
1438.015889459218,2591.83251953125,1.4526807069778442,285.535260394874,1860.6342529341628,1,0
1438.036723534195,2548.136474609375,1.4410550594329834,285.53561010617153,1860.6369145477886,2,0
1438.057557609172,2509.432861328125,1.4310076236724854,285.5367009385583,1860.638875149497,3,0
1438.0783916841478,2473.365966796875,1.421419382095337,285.53744828819373,1860.6414690461575,4,0
1438.099225758659,2444.572509765625,1.4137893915176392,285.5376432929134,1860.6418836411058,5,0
1438.1200598336354,2421.5029296875,1.4072980880737305,285.53744282387737,1860.6434975746274,6,0
1438.1408939081462,2403.0859375,1.4023772478103638,285.538232179794,1860.6444819131082,7,0
1438.1617279821899,2379.468017578125,1.3961045742034912,285.53880547861183,1860.645693145533,8,0
1438.1825620557695,2359.251708984375,1.3905905485153198,285.5388040895142,1860.6465298528121,9,0
1438.2033961288844,2335.1201171875,1.3845665454864502,285.53915565877355,1860.6478492108233,10,0
1438.2242302010668,2312.33447265625,1.378299593925476,285.53960995360524,1860.6498352869853,11,0
1438.2450642727836,2295.71875,1.3733583688735962,285.53997528145544,1860.649963007526,12,0
1438.2658983440351,2274.501220703125,1.3673497438430786,285.54003446572517,1860.6512274862373,13,0
1438.286732413889,2256.042236328125,1.3634296655654907,285.5410952753938,1860.6526766120364,14,0
1438.3075664832763,2237.12939453125,1.357292652130127,285.5412421280934,1860.6536327813549,15,0
1438.3284005512685,2221.1611328125,1.3530458211898804,285.54249638871755,1860.6553332887809,16,0
1438.349234618794,2201.3505859375,1.3482657670974731,285.54239293682014,1860.656012039617,17,0
1438.3700686849234,2182.441650390625,1.3433455228805542,285.5433764331829,1860.6564005539149,18,0
1438.3909027501215,2169.9296875,1.3383487462997437,285.5436969905149,1860.658155933732,19,0
1438.4117368139218,2161.50244140625,1.3358434438705444,285.54376781919586,1860.6569557579057,20,0
1438.432570876791,2152.99462890625,1.3334637880325317,285.5436427119476,1860.6582190549002,21,0
1438.453404938729,2151.86572265625,1.333497166633606,285.5443212234523,1860.6584905370316,22,0
1438.4742389988041,2149.380859375,1.3339154720306396,285.5441591612501,1860.6583224138856,23,0
1438.495073057948,2144.813720703125,1.3317512273788452,285.5448905181774,1860.6562419715435,24,0
1438.5159071161602,2150.011962890625,1.3324767351150513,285.54525179501974,1860.6582278793644,25,0
1438.5367411725106,2147.585205078125,1.332440972328186,285.5445925053905,1860.6574105704888,26,0
1438.55757522793,2149.1640625,1.332619309425354,285.54473766882927,1860.6582081730087,27,0
1438.5784092814852,2148.87548828125,1.3322787284851074,285.545824876724,1860.6573211665714,28,0
1438.5992433341105,2148.7353515625,1.33274507522583,285.5449949552448,1860.6573812494178,29,0
1438.620077385338,2147.520263671875,1.3327734470367432,285.5456361312438,1860.6559896082906,30,0
1438.6409114351682,2148.3876953125,1.3325538635253906,285.54558202258323,1860.6582621915327,31,0
1438.661745483602,2151.846435546875,1.333125352859497,285.5465203620664,1860.6585775887645,32,0
1438.682579530639,2149.7802734375,1.332611083984375,285.5458699250469,1860.6574525580604,33,0
1438.703413575813,2147.733154296875,1.3324600458145142,285.5458532854237,1860.6579360676767,34,0
1438.7242476200565,2147.5625,1.3324975967407227,285.5463151128823,1860.6571821125785,35,0
1438.7450816629025,2149.75634765625,1.332460880279541,285.54561092156837,1860.6584544351297,36,0
1438.7659157038852,2144.6435546875,1.3309811353683472,285.54620265502945,1860.655662471,37,0
1438.786749743937,2150.334228515625,1.3324623107910156,285.54593474522324,1860.6568905531014,38,0
1438.8075837821266,2148.890625,1.33211350440979,285.5469958409908,1860.6572969382821,39,0
1438.8284178189178,2149.3779296875,1.3327093124389648,285.54632453782733,1860.6572780017202,40,0
1438.8492518543135,2142.958251953125,1.3305344581604004,285.5463248202205,1860.655083470264,41,0
1438.8700858883126,2147.58544921875,1.3330713510513306,285.5471985622707,1860.6573540529141,42,0
1438.8909199209138,2143.698486328125,1.3306865692138672,285.5468020994947,1860.6543526009473,43,0
1438.9117539516524,2146.553466796875,1.3316948413848877,285.54664850699186,1860.656608272277,44,0
1438.93258798146,2147.2529296875,1.332129716873169,285.54699282775005,1860.6567927566427,45,0
1438.953422009404,2147.11572265625,1.3340542316436768,285.54723887798696,1860.655920557261,46,0
1438.9742560359514,2151.371826171875,1.3326586484909058,285.5477635573641,1860.6584078234512,47,0
1438.9950900611025,2150.450439453125,1.33231782913208,285.5469534226171,1860.6588364083877,48,0
1439.0159240848561,2149.52099609375,1.3322244882583618,285.5475668066491,1860.6571246228323,49,0
1439.0367581072135,2148.69970703125,1.3320260047912598,285.5478317049715,1860.6576020153905,50,0
1439.0575921277082,2148.849609375,1.3322638273239136,285.5481108992957,1860.6579662901024,51,0
1439.07842614727,2148.78369140625,1.3328526020050049,285.548175177568,1860.6577094736326,52,0
1439.0992601649705,2151.08203125,1.333362340927124,285.54798485545973,1860.6589616621904,53,0
1439.1200941812735,2147.80712890625,1.3317224979400635,285.5476729365366,1860.6578056197852,54,0
1439.1409281961792,2147.6083984375,1.3318266868591309,285.5476212041601,1860.6579981320065,55,0
1439.1617622096885,2147.4091796875,1.3321610689163208,285.5481684813231,1860.6579902789836,56,0
1439.1825962218008,2146.716796875,1.3314989805221558,285.5488964058942,1860.6579970526395,57,0
1439.2034302320506,2148.68017578125,1.3319960832595825,285.5487933806113,1860.6588492447559,58,0
1439.2242642413694,2150.4384765625,1.3328289985656738,285.5483780816185,1860.6595044547146,59,0
1439.245098248825,2152.001220703125,1.3329038619995117,285.54851923462866,1860.6587443532585,60,0
1439.265932255349,2148.811279296875,1.3322662115097046,285.54876401616946,1860.6586041678431,61,0
1439.2867662600106,2149.198974609375,1.3336013555526733,285.5485803100015,1860.658709202954,62,0
1439.3076002632752,2145.373046875,1.33130943775177,285.54905125754374,1860.6579788011263,63,0
1439.3284342656084,2146.73779296875,1.3330556154251099,285.54940933099573,1860.6577166788088,64,0
1439.349268266079,2149.23095703125,1.3329136371612549,285.5488411950132,1860.658835998069,65,0
1439.3701022651526,2146.54833984375,1.3313848972320557,285.5482652103634,1860.6571032005188,66,0
1439.3909362628306,2149.72607421875,1.333823323249817,285.54886371844253,1860.6593552185404,67,0
1439.4117702591102,2148.642822265625,1.332595705986023,285.5490226729468,1860.6597455004585,68,0
1439.432604253992,2147.00048828125,1.3316051959991455,285.5491091257175,1860.657987490269,69,0
1439.453438247478,2150.635009765625,1.3326982259750366,285.5495835310951,1860.6596213918015,70,0
1439.4742722395672,2147.28564453125,1.3321726322174072,285.5492053438423,1860.6596484342401,71,0
1439.495106230258,2150.26416015625,1.3328362703323364,285.54956710385557,1860.6595270929874,72,0
1439.515940219553,2148.255615234375,1.332719326019287,285.54962636041347,1860.6607693208118,73,0
1439.5367742074513,2151.91015625,1.3330072164535522,285.5504172999234,1860.6590662717445,74,0
1439.557608193953,2149.799560546875,1.3328858613967896,285.5499317251029,1860.6594633356876,75,0
1439.5784421795229,2147.389892578125,1.3317581415176392,285.54898647169887,1860.6593370130822,76,0
1439.5992761632292,2148.46240234375,1.3319441080093384,285.5497006171065,1860.6602666082733,77,0
1439.6201101455385,2148.556884765625,1.3321177959442139,285.5498044341627,1860.6610950823301,78,0
1439.640944126917,2149.177001953125,1.3321620225906372,285.5495965366012,1860.6601622577864,79,0
1439.6617781064335,2148.87548828125,1.3321727514266968,285.5487724576376,1860.659523473283,80,0
1439.6826120850178,2148.787353515625,1.3320616483688354,285.5501618884107,1860.6597905988717,81,0
1439.70344606174,2150.461669921875,1.3324083089828491,285.5497636686844,1860.6607501387045,82,0
1439.7242800375316,2148.159912109375,1.3318480253219604,285.55054241099106,1860.660793758239,83,0
1439.7451140119251,2150.910888671875,1.333396553993225,285.5501234317628,1860.6604953717488,84,0
1439.765947984921,2148.86962890625,1.3318601846694946,285.55033467700247,1860.6613258469604,85,0
1439.786781956521,2150.693115234375,1.3325343132019043,285.55034590672363,1860.6606344486738,86,0
1439.807615927189,2150.82470703125,1.3327003717422485,285.55004730255405,1860.6604319087269,87,0
1439.828449895995,2149.201416015625,1.332146167755127,285.55081287006016,1860.661292564269,88,0
1439.84928386387,2149.792724609375,1.3323974609375,285.55095165254284,1860.6610379918304,89,0
1439.870117830347,2149.1083984375,1.3321112394332886,285.55013756783677,1860.6616540084983,90,0
1439.8909517954285,2149.4384765625,1.3331327438354492,285.5504940737838,1860.6618925557411,91,0
1439.9117857591118,2147.351806640625,1.3316833972930908,285.5503778869845,1860.6610867730544,92,0
1439.9326197213986,2148.64599609375,1.3319522142410278,285.55062182033697,1860.6608028039097,93,0
1439.9534536827532,2146.58935546875,1.3314465284347534,285.5510789963639,1860.661042027062,94,0
1439.9742876427108,2150.063232421875,1.33237624168396,285.5512057268256,1860.6614445103417,95,0
1439.9951216012726,2148.696044921875,1.3324167728424072,285.55042572149557,1860.6614964460528,96,0
1440.015955558436,2147.119140625,1.3315287828445435,285.5513002438997,1860.662069878107,97,0
1440.0367895142044,2149.236328125,1.3323795795440674,285.5511712576869,1860.6618163394246,98,0
1440.0576234690411,2148.20947265625,1.3322912454605103,285.5508398277726,1860.661831437564,99,0
1440.078457422479,2147.136962890625,1.3322813510894775,285.5496163984721,1860.6624544198517,100,0
1440.0992913745215,2148.096923828125,1.3330968618392944,285.55078680086217,1860.6606048345163,101,0
1440.120125325632,2149.81884765625,1.333128571510315,285.5508566054916,1860.6619579138776,102,0
1440.1409592753455,2149.6875,1.3325186967849731,285.55058978469344,1860.6631562091147,103,0
1440.1617932236618,2150.34423828125,1.332526445388794,285.55126318290246,1860.6620832250014,104,0
1440.1826271705816,2148.412109375,1.3331141471862793,285.5505087645354,1860.6627160991447,105,0
1440.203461116571,2148.587890625,1.332039475440979,285.5512067990468,1860.6625512066428,106,0
1440.2242950611621,2149.361328125,1.3322502374649048,285.5506089909748,1860.6621041020544,107,0
1440.2451290043564,2148.128662109375,1.3320437669754028,285.5510629226815,1860.6622087436433,108,0
1440.26596294662,2151.854248046875,1.3341822624206543,285.5516205194126,1860.6629485267463,109,0
1440.286796887486,2147.9345703125,1.3316375017166138,285.550884099005,1860.6629127954952,110,0
1440.3076308269551,2149.5048828125,1.3341326713562012,285.55110492264527,1860.663357250239,111,0
1440.3284647654925,2147.121826171875,1.3314509391784668,285.55083335976997,1860.663103206043,112,0
1440.3492987026339,2147.299072265625,1.331568717956543,285.5513162542834,1860.663024964251,113,0
1440.370132638843,2148.49560546875,1.3323997259140015,285.5512995784887,1860.6632202447252,114,0
1440.3909665731906,2149.90234375,1.3327486515045166,285.5512206592096,1860.6637036679538,115,0
1440.4118005070718,2149.4814453125,1.3324049711227417,285.55168154939713,1860.6629950321867,116,0
1440.4326344390906,2150.5888671875,1.3323782682418823,285.5516568238714,1860.6633215693557,117,0
1440.453468370177,2149.32666015625,1.3324190378189087,285.5514604921463,1860.6635778408527,118,0
1440.4743022998675,2147.423583984375,1.331782341003418,285.5520048552459,1860.6635983436274,119,0
1440.4951362286265,2147.4716796875,1.3324326276779175,285.55162816659396,1860.6638434846393,120,0
1440.5159701559878,2149.31494140625,1.332356333732605,285.5515972794747,1860.66353196206,121,0
1440.536804082419,2151.0654296875,1.3331549167633057,285.5512565794521,1860.6642215703428,122,0
1440.557638007453,2147.627197265625,1.3318560123443604,285.5515381738863,1860.6638838841604,123,0
1440.57847193109,2149.49365234375,1.3340409994125366,285.55160964337307,1860.6645374387545,124,0
1440.5993058537952,2147.731201171875,1.3317691087722778,285.55161623019933,1860.6636975939932,125,0
1440.6201397751036,2138.80810546875,1.3301396369934082,285.5515173091714,1860.6636560993034,126,0
1440.640973695481,2134.009765625,1.3277020454406738,285.55117800172616,1860.6640449889394,127,0
1440.6618076144605,2131.648193359375,1.327286958694458,285.5516094322782,1860.663677263836,128,0
1440.6826415320438,2130.5751953125,1.3268576860427856,285.5512679939213,1860.6639721429394,129,0
1440.7034754486954,2131.70068359375,1.3273158073425293,285.55212797800044,1860.6639982083152,130,0
1440.7243093644165,2130.9208984375,1.327007532119751,285.5519908797317,1860.664416340179,131,0
1440.74514327874,2131.647705078125,1.3274208307266235,285.55148378882285,1860.664042026615,132,0
1440.7659771916665,2131.718505859375,1.3272243738174438,285.55184670616876,1860.6641045217905,133,0
1440.786811103661,2133.82177734375,1.3280209302902222,285.55146977723683,1860.6640740862783,134,0
1440.8076450147255,2150.07958984375,1.3326419591903687,285.55210650927484,1860.6644003685365,135,0
1440.8284789243921,2147.028564453125,1.3316861391067505,285.5514642613923,1860.6643167070133,136,0
1440.8493128326616,2148.485107421875,1.3324565887451172,285.55180118167834,1860.6652398043452,137,0
1440.87014674,2147.126953125,1.3318740129470825,285.5519738915739,1860.665138774425,138,0
1440.890980646408,2147.753662109375,1.3316876888275146,285.5519459944012,1860.665064044817,139,0
1440.911814551419,2148.2763671875,1.3319125175476074,285.5523002577466,1860.6646036805032,140,0
1440.932648455032,2148.9404296875,1.3337762355804443,285.5518578747475,1860.6653811721346,141,0
1440.9534823577142,2146.24755859375,1.331473708152771,285.55204313373974,1860.6650479522878,142,0
1440.974316259464,2147.68701171875,1.3321294784545898,285.55192573803623,1860.664968677695,143,0
1440.9951501598175,2148.22216796875,1.331885814666748,285.55201967401734,1860.665406237307,144,0
1441.015984058774,2149.22216796875,1.3326308727264404,285.55180769773403,1860.6662517235181,145,0
1441.0576518538935,2142.406982421875,1.3310070037841797,285.5516268590962,1860.661408004445,146,0
1441.0784857495914,2142.2412109375,1.3312280178070068,285.55198774989685,1860.6616913325022,147,0
1441.1409874306291,2143.428466796875,1.3305280208587646,285.5514937069757,1860.6615178820894,148,0
1441.1826552117782,2142.63818359375,1.33082914352417,285.5517173430417,1860.6626100157175,149,0
1441.2034891009555,2140.682861328125,1.3297511339187622,285.5524114910443,1860.6618393469519,150,0
1441.224322988737,2145.055908203125,1.3310141563415527,285.5516892554406,1860.6644539604324,151,0
1441.2451568755876,2145.966064453125,1.331351399421692,285.5512564908474,1860.6652894858482,152,0
1441.2868246460266,2141.47802734375,1.3305271863937378,285.55110026011533,1860.6633797788609,153,0
1441.3076585291506,2142.38671875,1.3303390741348267,285.55161699153615,1860.6618710297273,154,0
1441.3284924113436,2142.348876953125,1.3304387331008911,285.5517091989446,1860.6630201488058,155,0
1441.349326292605,2147.290771484375,1.33406662940979,285.5516159733212,1860.6651553960107,156,0
1441.370160172935,2144.1728515625,1.3306379318237305,285.5513346976703,1860.6637900949293,157,0
1441.3909940518683,2144.67138671875,1.3311430215835571,285.55189880294705,1860.6657530860348,158,0
1441.411827929871,2144.46484375,1.3311916589736938,285.5508018349384,1860.6646332570863,159,0
1441.432661806476,2147.4462890625,1.3315798044204712,285.552256012433,1860.6642561511333,160,0
1441.4534956821494,2140.01025390625,1.331007480621338,285.55161615755986,1860.6628904149252,161,0
1441.474329556892,2142.02734375,1.330161690711975,285.551700704967,1860.6625333495028,162,0
1441.495163430237,2143.403076171875,1.3306747674942017,285.5520852044319,1860.6644368582333,163,0
1441.5159973026512,2142.781005859375,1.3301048278808594,285.55236544089774,1860.6637082051598,164,0
1441.5368311736675,2144.5166015625,1.3309824466705322,285.5524266729964,1860.666285374217,165,0
1441.5576650442194,2145.493896484375,1.3315956592559814,285.5531245338073,1860.664912596725,166,0
1441.5784989129083,2143.296142578125,1.3308581113815308,285.5512840330058,1860.6640103857628,167,0
1441.599332781132,2145.56982421875,1.3318073749542236,285.55236832310493,1860.6653754261085,168,0
1441.6201666479574,2144.757080078125,1.3312238454818726,285.55161296197747,1860.6658808697855,169,0
1441.6410005138518,2147.505859375,1.3332618474960327,285.5526144774825,1860.6651131331496,170,0
1441.66183437835,2144.1171875,1.331368088722229,285.5514865461273,1860.6670713630501,171,0
1441.682668241916,2146.57958984375,1.3314037322998047,285.5527367274427,1860.6653328332798,172,0
1441.7035021045515,2145.84765625,1.3316707611083984,285.55166337159613,1860.6657705959637,173,0
1441.7243359662555,2144.177978515625,1.3311436176300049,285.5524027438263,1860.6670749382326,174,0
1441.745169826563,2146.052001953125,1.3314839601516724,285.55200975139553,1860.667000370525,175,0
1441.7660036859384,2147.291748046875,1.3316435813903809,285.55176099879174,1860.6665260234804,176,0
1441.7868375439166,2149.71484375,1.332229495048523,285.5521969352994,1860.6675815015437,177,0
1441.80767140143,2148.3525390625,1.3319306373596191,285.5529954480018,1860.665310628193,178,0
1441.8285052575457,2145.298828125,1.3313840627670288,285.5525747188165,1860.6669631793902,179,0
1441.8493391122638,2147.47802734375,1.3320527076721191,285.55165610892135,1860.6685400980211,180,0
1441.870172966517,2145.228515625,1.3313335180282593,285.55212896967925,1860.6678713068702,181,0
1441.8910068193736,2146.59033203125,1.3318500518798828,285.5525148525425,1860.66597551372,182,0
1441.9118406708335,2146.466064453125,1.3311715126037598,285.5524525061349,1860.6673562672565,183,0
1441.9326745218268,2146.35498046875,1.3314334154129028,285.5522365713584,1860.667732301879,184,0
1441.9535083714236,2147.36083984375,1.3316965103149414,285.55232383501277,1860.667640971214,185,0
1441.9743422200895,2146.2763671875,1.3316680192947388,285.55220440208717,1860.6680139783791,186,0
1441.995176067358,2146.7197265625,1.3315868377685547,285.552552643227,1860.6681788700603,187,0
1442.0160099141603,2144.943359375,1.331053614616394,285.5520559972082,1860.667403537435,188,0
1442.0368437595662,2145.286865234375,1.3314875364303589,285.5527146628095,1860.6674345446363,189,0
1442.057677603575,2147.03271484375,1.331352710723877,285.55231891113806,1860.6679790115036,190,0
1442.0785114471191,2146.52783203125,1.3320156335830688,285.552407023038,1860.6687037898914,191,0
1442.0993452892644,2146.3349609375,1.3319714069366455,285.5522276459644,1860.668419850199,192,0
1442.1201791304788,2148.20068359375,1.3319640159606934,285.55239929855907,1860.6688092607935,193,0
1442.1410129707624,2145.6650390625,1.3310620784759521,285.55337106042754,1860.6688673474544,194,0
1442.1618468096485,2146.994140625,1.3314719200134277,285.5523726138515,1860.6692826760432,195,0
1442.1826806476035,2144.9091796875,1.3312146663665771,285.5527527423446,1860.6685013274073,196,0
1442.2035144846268,2146.17041015625,1.332101821899414,285.5520576457157,1860.6692683040308,197,0
1442.22434832072,2144.814208984375,1.3311361074447632,285.5527272187106,1860.6681315614208,198,0
1442.2451821554164,2147.55810546875,1.3320202827453613,285.55293817423905,1860.6694934392465,199,0
1442.2660159891811,2146.1787109375,1.331613540649414,285.5521212045892,1860.6687103588908,200,0
1442.2868498220137,2147.252197265625,1.3318963050842285,285.55281536006515,1860.6692449072755,201,0
