time,flux,flux_err,centroid_col,centroid_row,cadenceno,quality
1491.662063322502,1974.770263671875,1.2883586883544922,824.9179542075516,150.18173084994683,0,0
1491.682897404786,1937.1790771484375,1.2771525382995605,824.9175094589446,150.18270192466986,1,0
1491.7037314866038,1902.0421142578125,1.2666279077529907,824.9188717936474,150.18325727212007,2,0
1491.724565567956,1868.269287109375,1.2561391592025757,824.9197011544436,150.184497040875,3,0
1491.745399648843,1835.786865234375,1.2468624114990234,824.9206397153862,150.18567663729857,4,0
1491.7662337292636,1809.0985107421875,1.238145351409912,824.9215112834668,150.18575241554817,5,0
1491.787067809219,1783.324951171875,1.2308919429779053,824.9224759802144,150.18739847010727,6,0
1491.807901888709,1760.699462890625,1.2258110046386719,824.9234529401365,150.18882100751196,7,0
1491.828735967267,1735.611572265625,1.2153840065002441,824.9229394705915,150.1900026409943,8,0
1491.84957004536,1708.6329345703125,1.2074514627456665,824.923830604165,150.1909118846654,9,0
1491.870404122521,1689.4385986328125,1.2024834156036377,824.9250731635626,150.19096375359007,10,0
1491.891238199217,1672.4622802734375,1.1960234642028809,824.9242654230469,150.19065549294857,11,0
1491.912072274981,1658.6138916015625,1.1917877197265625,824.9261118693728,150.19223902132606,12,0
1491.932906349814,1645.8408203125,1.1896144151687622,824.9259877804403,150.19215633698167,13,0
1491.9537404241814,1634.836181640625,1.1835676431655884,824.9267527413318,150.19328358587867,14,0
1491.974574497152,1628.025390625,1.1814824342727661,824.9264451422472,150.19360836915405,15,0
1491.9954085696577,1624.11474609375,1.1806974411010742,824.9267290613095,150.1934527527316,16,0
1492.016242641697,1623.0614013671875,1.1800378561019897,824.9269993183725,150.19426376411042,17,0
1492.037076712339,1622.0821533203125,1.1801038980484009,824.9269268391103,150.19319080264088,18,0
1492.05791078205,1621.21044921875,1.179550051689148,824.9274402667248,150.19434938456237,19,0
1492.0787448512951,1621.15576171875,1.1794642210006714,824.9261002101726,150.19481767941406,20,0
1492.099578919143,1620.5009765625,1.179309606552124,824.9262698393328,150.19344553814256,21,0
1492.120412986526,1620.242431640625,1.1791802644729614,824.9264401162177,150.19372981526593,22,0
1492.141247052511,1621.8634033203125,1.1801695823669434,824.9270943369884,150.19478580576015,23,0
1492.162081118031,1618.789306640625,1.178863286972046,824.9268519662213,150.19350305539757,24,0
1492.182915182154,1618.1199951171875,1.1805775165557861,824.9274431243941,150.1946521589793,25,0
1492.2037492453455,1619.6148681640625,1.1791725158691406,824.9266056063193,150.19421801213983,26,0
1492.2245833076054,1618.8291015625,1.1787327527999878,824.9264351920696,150.19389950856046,27,0
1492.2454173689346,1617.5335693359375,1.1783771514892578,824.9266604236639,150.19439882467785,28,0
1492.266251429332,1620.661865234375,1.1800768375396729,824.9257390259544,150.19421035325524,29,0
1492.2870854887979,1618.908935546875,1.1789954900741577,824.9272182399894,150.19492230567974,30,0
1492.3079195468674,1620.0777587890625,1.1797086000442505,824.9257019290027,150.19393773673065,31,0
1492.3287536040054,1618.690185546875,1.1787976026535034,824.9260782930414,150.19323681912414,32,0
1492.349587660212,1620.197998046875,1.1794966459274292,824.9263569263649,150.1941207234841,33,0
1492.3704217154868,1618.6640625,1.1787389516830444,824.9249488653777,150.19360375482952,34,0
1492.3912557698309,1618.0343017578125,1.1787577867507935,824.9269492378576,150.1938284580304,35,0
1492.412089822778,1618.7633056640625,1.1794180870056152,824.9258610967016,150.19475941468266,36,0
1492.432923874795,1618.251953125,1.1789482831954956,824.9259669907036,150.19363822649947,37,0
1492.4537579258795,1618.2587890625,1.1789863109588623,824.926099292543,150.19429536449888,38,0
1492.4745919760326,1618.12841796875,1.1787264347076416,824.9249371006814,150.19390498606336,39,0
1492.4954260247885,1619.3624267578125,1.1795282363891602,824.9262169548246,150.19430926304804,40,0
1492.5162600726135,1620.66162109375,1.1805026531219482,824.9265111332388,150.19524279250643,41,0
1492.537094119507,1618.3856201171875,1.1790820360183716,824.9254245514816,150.19506821071195,42,0
1492.5579281654695,1619.877197265625,1.180083990097046,824.926709447391,150.19459140986376,43,0
1492.5787622100345,1617.1871337890625,1.1795036792755127,824.9266821240977,150.1942671126058,44,0
1492.599596253668,1618.76513671875,1.1808263063430786,824.9257785600008,150.19403251047967,45,0
1492.6204302963706,1618.705078125,1.1791527271270752,824.9255977199687,150.19409764515967,46,0
1492.6412643376761,1616.8184814453125,1.178468942642212,824.9256312883745,150.19455635898802,47,0
1492.66209837805,1618.810546875,1.1792629957199097,824.9262918477199,150.1948588961441,48,0
1492.682932417493,1619.203369140625,1.1795191764831543,824.9252483543687,150.19337824966675,49,0
1492.703766455539,1619.798095703125,1.1792634725570679,824.925957840099,150.1943349338093,50,0
1492.7246004926528,1619.5543212890625,1.1792715787887573,824.9263931094506,150.19509668594173,51,0
1492.7454345288365,1617.9261474609375,1.179055094718933,824.9255639747425,150.1943692630276,52,0
1492.766268564088,1617.541259765625,1.1787397861480713,824.9260379372024,150.19395361921886,53,0
1492.787102597943,1616.8201904296875,1.1785895824432373,824.9260360765817,150.19490458694912,54,0
1492.807936630867,1618.6103515625,1.1790435314178467,824.9251154969631,150.19506732489893,55,0
1492.8287706623935,1619.82958984375,1.1798166036605835,824.9267386619415,150.1936918484776,56,0
1492.849604693454,1618.724365234375,1.179137110710144,824.9256289972769,150.19437485436168,57,0
1492.8704387226526,1620.9893798828125,1.1797057390213013,824.9270363227452,150.19467044941524,58,0
1492.891272751385,1619.7279052734375,1.1795600652694702,824.9257205204747,150.1943132753191,59,0
1492.9121067787205,1618.53369140625,1.1803632974624634,824.9263905600773,150.19429105210426,60,0
1492.9329408051253,1619.31640625,1.1792610883712769,824.9255793437685,150.1942246638634,61,0
1492.953774830599,1621.090087890625,1.1797322034835815,824.9266233470407,150.1940081001689,62,0
1492.974608854675,1617.4169921875,1.179240345954895,824.926233218716,150.19436504330605,63,0
1492.99544287782,1619.5853271484375,1.179364800453186,824.9264329768295,150.1945190453195,64,0
1493.016276900033,1621.1876220703125,1.1796835660934448,824.9251116219249,150.1936071247079,65,0
1493.0371109208495,1619.0634765625,1.179388165473938,824.9266028526841,150.1934127327237,66,0
1493.0579449407346,1619.93310546875,1.1794902086257935,824.9257351950478,150.1941181137067,67,0
1493.078778959688,1619.4183349609375,1.1795730590820312,824.9249917177203,150.19433746473672,68,0
1493.099612977245,1621.211669921875,1.1813061237335205,824.9242662864283,150.1940512459711,69,0
1493.1204469938705,1620.919677734375,1.1799570322036743,824.9247720142992,150.19275954443603,70,0
1493.1412810095644,1617.9794921875,1.179018259048462,824.9253661854008,150.19493609447608,71,0
1493.1621150238616,1619.8499755859375,1.1795181035995483,824.926589336879,150.19388151044504,72,0
1493.182949037227,1620.779296875,1.1797387599945068,824.9251438758,150.19325057895267,73,0
1493.203783049662,1621.399658203125,1.1809931993484497,824.9256387028923,150.1945940585308,74,0
1493.224617061165,1620.650146484375,1.1796225309371948,824.9247274536572,150.19381142211657,75,0
1493.245451071271,1622.06884765625,1.180791974067688,824.9260134698345,150.19348277180865,76,0
1493.26628507998,1621.6748046875,1.1799709796905518,824.9253019343217,150.19362693605305,77,0
1493.2871190882236,1623.427978515625,1.1815509796142578,824.9258457156044,150.19474420003064,78,0
1493.30795309507,1620.9571533203125,1.179801344871521,824.9257452020995,150.19417480471435,79,0
1493.3287871009854,1621.809326171875,1.1798648834228516,824.9246765659616,150.1946486422936,80,0
1493.3496211055035,1625.84423828125,1.1811350584030151,824.9252498664306,150.19456615313138,81,0
1493.3704551095561,1622.3563232421875,1.180972933769226,824.9258545001435,150.193467316833,82,0
1493.3912891122116,1620.710693359375,1.180972933769226,824.9255826790999,150.19376039308082,83,0
1493.41212311347,1622.6163330078125,1.1804605722427368,824.9263962864547,150.1947219302232,84,0
1493.4329571137969,1622.8623046875,1.1810840368270874,824.9242405856472,150.19426768259146,85,0
1493.453791113193,1621.900634765625,1.1805317401885986,824.9250248934829,150.19274761395118,86,0
1493.4746251116585,1622.19140625,1.1801413297653198,824.9252788887223,150.19486298321198,87,0
1493.4954591091926,1623.629150390625,1.1806877851486206,824.9247555028769,150.19371806105963,88,0
1493.5162931053292,1623.719970703125,1.1809799671173096,824.9260805856386,150.19401265149216,89,0
1493.537127100069,1624.533935546875,1.1814242601394653,824.9248108231462,150.1940007940228,90,0
1493.5579610943425,1623.3677978515625,1.1805578470230103,824.9253569766478,150.19413912892824,91,0
1493.578795087219,1623.763671875,1.1832960844039917,824.9256594203432,150.19360373675224,92,0
1493.5996290791645,1622.994873046875,1.1808803081512451,824.9253126171913,150.19472609832414,93,0
1493.620463069713,1622.88818359375,1.1808408498764038,824.9254836795866,150.1936542663618,94,0
1493.6412970597955,1624.625244140625,1.180783748626709,824.9260437259044,150.19429426332545,95,0
1493.6621310484811,1626.0755615234375,1.1821446418762207,824.9256817677992,150.1945024874987,96,0
1493.68296503577,1626.5357666015625,1.1815191507339478,824.9250348284872,150.19372666390035,97,0
1493.703799022593,1624.1424560546875,1.1810749769210815,824.9253794445311,150.1934064043713,98,0
1493.724633008019,1624.2587890625,1.181044101715088,824.9249098597256,150.19405564008764,99,0
1493.7454669925141,1626.8184814453125,1.1819483041763306,824.9251613954096,150.19329992945845,100,0
1493.7663009756116,1623.043701171875,1.1815823316574097,824.9255943190021,150.19411862004242,101,0
1493.787134958244,1625.7119140625,1.181226372718811,824.9260570808372,150.19396187194732,102,0
1493.807968939479,1625.50244140625,1.1816602945327759,824.924833844193,150.19359723586066,103,0
1493.828802919317,1623.2978515625,1.1812031269073486,824.9259340425398,150.19398248886904,104,0
1493.8496368986894,1625.194091796875,1.1817198991775513,824.9255815392393,150.19306991953334,105,0
1493.870470876665,1623.510009765625,1.1826211214065552,824.9257600531256,150.19509332249808,106,0
1493.891304853709,1627.0751953125,1.1825058460235596,824.9257630542427,150.1935116194013,107,0
1493.912138829356,1626.060546875,1.1823163032531738,824.9259394672407,150.19385028198244,108,0
1493.932972804538,1627.33984375,1.1820390224456787,824.9254910747505,150.19386633076712,109,0
1493.9538067783226,1625.4947509765625,1.1811130046844482,824.9256028888591,150.19424435491507,110,0
1493.97464075071,1628.3067626953125,1.1822941303253174,824.9255277478095,150.19326742440956,111,0
1493.995474722632,1628.100830078125,1.1828924417495728,824.9250840887154,150.19387586690422,112,0
1494.016308693157,1627.045654296875,1.1821893453598022,824.9249608253072,150.1940900457492,113,0
1494.0371426627505,1626.45166015625,1.1818987131118774,824.9254635770088,150.19376990221775,114,0
1494.0579766314124,1626.5050048828125,1.1838411092758179,824.9255925945689,150.1937176442431,115,0
1494.078810598678,1628.319580078125,1.182313323020935,824.925515083595,150.19287926991692,116,0
1494.099644565013,1630.188232421875,1.1830472946166992,824.9250455670305,150.19280633789265,117,0
1494.120478530416,1626.720458984375,1.182705283164978,824.9255618150374,150.19348347685377,118,0
1494.141312494887,1624.700439453125,1.1809613704681396,824.925362564959,150.19354266479112,119,0
1494.162146457962,1628.9945068359375,1.1827304363250732,824.925925747953,150.19351237189412,120,0
1494.182980420105,1628.4600830078125,1.182262897491455,824.9257474975348,150.19416049584925,121,0
1494.2038143813165,1628.448486328125,1.1822384595870972,824.9255525008901,150.1933748805307,122,0
1494.224648341597,1628.015625,1.1822453737258911,824.9256747675438,150.1929060770937,123,0
1494.24548230048,1630.150146484375,1.1827828884124756,824.9246903780761,150.19321633322576,124,0
1494.266316258432,1629.906005859375,1.1831767559051514,824.925817300383,150.19370224098068,125,0
1494.287150215453,1630.5458984375,1.1828533411026,824.9251680169511,150.19300078600438,126,0
1494.3079841715426,1630.4124755859375,1.182875156402588,824.9255106975796,150.19354847162833,127,0
1494.328818126235,1630.2867431640625,1.1826077699661255,824.9248842819735,150.19300184293752,128,0
1494.349652079996,1628.975830078125,1.183071255683899,824.9254078625239,150.1932376708279,129,0
1494.370486032826,1630.7088623046875,1.1827905178070068,824.9266340692221,150.19385013227642,130,0
1494.391319984724,1629.42919921875,1.1829849481582642,824.9259145969625,150.1928873123317,131,0
1494.412153935226,1632.401123046875,1.1840516328811646,824.9258918496212,150.19254380028462,132,0
1494.432987884796,1630.4708251953125,1.1829426288604736,824.9263063759877,150.19391699010325,133,0
1494.453821833435,1629.8994140625,1.1825507879257202,824.925254487372,150.19407787076165,134,0
1494.4746557811432,1632.61181640625,1.1836614608764648,824.9263561737104,150.19349225114092,135,0
1494.4954897274536,1631.05908203125,1.183335542678833,824.9249433602292,150.19294136212062,136,0
1494.516323672833,1632.44091796875,1.183426856994629,824.9253104455739,150.19340534172102,137,0
1494.5371576172806,1631.2984619140625,1.1838409900665283,824.925710177432,150.19263432592288,138,0
1494.5579915607968,1631.4375,1.1851615905761719,824.9262071282216,150.1931134386044,139,0
1494.578825502917,1629.7288818359375,1.1839592456817627,824.9267133265057,150.19324243025048,140,0
1494.5996594441049,1633.5885009765625,1.1836602687835693,824.9258976576398,150.19311996944933,141,0
1494.620493384362,1633.0020751953125,1.1839674711227417,824.9254993514136,150.19374417727965,142,0
1494.6413273236876,1632.8155517578125,1.183711290359497,824.9262687625808,150.1935829029925,143,0
1494.662161262082,1632.55419921875,1.1844426393508911,824.9253773623279,150.19316093963428,144,0
1494.682995199079,1633.317138671875,1.1840810775756836,824.9257307139077,150.1930122859756,145,0
1494.703829135145,1632.06982421875,1.18496572971344,824.9257512818331,150.1929725661702,146,0
1494.72466307028,1631.1351318359375,1.1832436323165894,824.9249758218277,150.19260262243083,147,0
1494.7454970040176,1635.377685546875,1.1844013929367065,824.9256491409205,150.19360544633304,148,0
1494.7663309372895,1632.607666015625,1.183769941329956,824.9254607822363,150.19278156679644,149,0
1494.7871648691644,1634.013916015625,1.18390691280365,824.9244838781901,150.19255023329873,150,0
1494.828832729655,1634.140625,1.18392813205719,824.9262491148049,150.19336525762537,151,0
1494.8496666587362,1633.850341796875,1.1841843128204346,824.9259162014396,150.19301766886807,152,0
1494.87050058642,1633.3231201171875,1.184125304222107,824.9251597306255,150.19259090103625,153,0
1494.891334513173,1632.243408203125,1.1832503080368042,824.9257363025301,150.1926782869448,154,0
1494.912168438995,1634.234619140625,1.1843153238296509,824.925890027376,150.1929699013643,155,0
1494.9330023638859,1632.8790283203125,1.1838935613632202,824.9264217610004,150.19269515222354,156,0
1494.953836287379,1634.721923828125,1.1864889860153198,824.9265063425381,150.19316788225075,157,0
1494.974670209941,1634.808837890625,1.1845648288726807,824.9257214041684,150.19322505774565,158,0
1494.9955041315711,1632.451171875,1.1837069988250732,824.9263268112561,150.19320117191006,159,0
1495.0163380522704,1635.9234619140625,1.184653639793396,824.9259116247192,150.1927926177584,160,0
1495.0371719715724,1636.09130859375,1.1857737302780151,824.9254322491618,150.19258477295145,161,0
1495.0580058899436,1636.0899658203125,1.1848350763320923,824.9261277303804,150.19327296569557,162,0
1495.078839807383,1634.8115234375,1.1848671436309814,824.9252578201956,150.1935693020417,163,0
1495.099673723891,1635.0045166015625,1.1843494176864624,824.9266513155895,150.1937541403933,164,0
1495.120507639468,1637.661865234375,1.1874197721481323,824.9256453769256,150.19193753472604,165,0
1495.141341553648,1635.07470703125,1.1845893859863281,824.9248499779611,150.19285935111432,166,0
1495.1621754673624,1637.4327392578125,1.185010552406311,824.9264708902717,150.19336368330968,167,0
1495.1830093792141,1636.984619140625,1.184810757637024,824.9261083913278,150.1932892687927,168,0
1495.2038432906,1637.74267578125,1.1852024793624878,824.9257722998917,150.1935632470528,169,0
1495.2246772010544,1636.4166259765625,1.1852260828018188,824.9258975590288,150.19183996896803,170,0
1495.245511110112,1637.3819580078125,1.18500816822052,824.9258219819638,150.19298503783483,171,0
1495.266345018238,1639.82421875,1.1857621669769287,824.926262018515,150.192744933539,172,0
1495.287178925433,1638.602783203125,1.1867035627365112,824.926287937945,150.19292832407862,173,0
1495.308012831697,1639.4532470703125,1.185540795326233,824.9254507925713,150.1920352657378,174,0
1495.328846737029,1637.45166015625,1.1853185892105103,824.9254570913353,150.19336112282357,175,0
1495.3496806409648,1638.41845703125,1.185495138168335,824.9262948441669,150.19313753937215,176,0
1495.370514543969,1636.457763671875,1.1848894357681274,824.9261256381723,150.1935824137978,177,0
1495.3913484460415,1638.3284912109375,1.1853129863739014,824.9262966923119,150.19285642357863,178,0
1495.412182347183,1639.8004150390625,1.1876318454742432,824.9256025163689,150.1928853471369,179,0
1495.4330162469269,1641.11767578125,1.186613917350769,824.9266137601833,150.1935864999915,180,0
1495.453850145741,1637.8623046875,1.1854711771011353,824.9262066338197,150.19317239603177,181,0
1495.4746840440885,1639.559326171875,1.1857714653015137,824.9252735128547,150.1930153012336,182,0
1495.4955179405729,1638.1162109375,1.1861815452575684,824.9257659201035,150.19319584717644,183,0
1495.5163518365925,1641.02880859375,1.186204195022583,824.9270448445427,150.19299853503318,184,0
1495.53718573168,1638.82177734375,1.1852847337722778,824.9262214671512,150.19277361620973,185,0
1495.558019625371,1639.6944580078125,1.1855792999267578,824.92613896632,150.19340096134883,186,0
1495.5788535181305,1640.8653564453125,1.187719464302063,824.9256203369462,150.19277850960674,187,0
1495.599687409959,1640.3505859375,1.1865544319152832,824.9268883757492,150.19322656237443,188,0
1495.6205213008554,1642.2255859375,1.186326265335083,824.9254700418015,150.1922687014722,189,0
1495.641355190355,1641.1888427734375,1.1865330934524536,824.9261737725702,150.1926906221738,190,0
1495.662189078924,1640.950439453125,1.18620765209198,824.9271458782804,150.19281127902755,191,0
1495.683022966561,1639.8162841796875,1.1864533424377441,824.9263241460169,150.1931132533708,192,0
1495.703856853267,1642.5673828125,1.1877033710479736,824.9267950678483,150.19261769473522,193,0
1495.7246907390415,1640.154541015625,1.1866742372512817,824.9267642949845,150.19322266035215,194,0
1495.745524623419,1640.7528076171875,1.1861437559127808,824.9262375263623,150.19249410964787,195,0
1495.766358507331,1641.0384521484375,1.186106562614441,824.9263536971747,150.19214768941785,196,0
1495.787192389846,1636.6790771484375,1.1847842931747437,824.9268267055996,150.19378743891093,197,0
1495.8080262714295,1635.8807373046875,1.184381365776062,824.9260168914797,150.19315749188408,198,0
1495.828860151616,1633.4884033203125,1.1839021444320679,824.9275624971182,150.193958315476,199,0
1495.849694031337,1635.93896484375,1.1845550537109375,824.926316858375,150.19215790980965,200,0
