time,flux,flux_err,centroid_col,centroid_row,cadenceno,quality
1437.9950553847075,19972.908203125,3.8746068477630615,893.4320498682835,1666.9696461754982,0,0
1438.015889459218,19882.765625,3.8661715984344482,893.4315229537378,1666.9682740165595,1,0
1438.036723534195,19805.302734375,3.8583595752716064,893.4308465639381,1666.968412679981,2,0
1438.057557609172,19742.443359375,3.852158546447754,893.4305227581142,1666.9680102088112,3,0
1438.0783916841478,19675.388671875,3.8457467555999756,893.4301342150067,1666.967724924331,4,0
1438.099225758659,19610.6796875,3.839160680770874,893.4299609784429,1666.9671277971745,5,0
1438.1200598336354,19569.94140625,3.8353111743927,893.4294178981438,1666.9664915427538,6,0
1438.1408939081462,19524.458984375,3.8309507369995117,893.4290969907737,1666.9661780025915,7,0
1438.1617279821899,19483.673828125,3.82684326171875,893.4287894068661,1666.9660046657652,8,0
1438.1825620557695,19448.65234375,3.8234024047851562,893.4292191176486,1666.965100623035,9,0
1438.2033961288844,19404.38671875,3.819020986557007,893.4285255322421,1666.9654296391784,10,0
1438.2242302010668,19376.830078125,3.8161046504974365,893.4287360344592,1666.965214059418,11,0
1438.2450642727836,19333.1015625,3.8120522499084473,893.4286603891298,1666.9644472350894,12,0
1438.2658983440351,19310.42578125,3.809696912765503,893.4285909411489,1666.9642854036306,13,0
1438.286732413889,19282.71875,3.8071129322052,893.4287979873798,1666.9639683165342,14,0
1438.3075664832763,19251.0234375,3.8043999671936035,893.4288344767892,1666.9640049068007,15,0
1438.3284005512685,19233.18359375,3.802234649658203,893.4288885620962,1666.9634263876012,16,0
1438.349234618794,19204.009765625,3.7991976737976074,893.4288401759968,1666.9631633632014,17,0
1438.3700686849234,19181.64453125,3.7972118854522705,893.4291237034673,1666.9628595177967,18,0
1438.3909027501215,19164.1171875,3.7953145503997803,893.4292947581785,1666.9627059767868,19,0
1438.4117368139218,19144.029296875,3.79329514503479,893.4293592093774,1666.962156858224,20,0
1438.432570876791,19133.576171875,3.7922091484069824,893.4292369952874,1666.9621537283474,21,0
1438.453404938729,19126.4140625,3.7916488647460938,893.4299393036606,1666.9605517448465,22,0
1438.4742389988041,19129.279296875,3.7918107509613037,893.4296792800446,1666.961734907457,23,0
1438.495073057948,19118.5234375,3.7906458377838135,893.4302321499499,1666.9612717858704,24,0
1438.5159071161602,19128.65625,3.79168438911438,893.4304860605693,1666.9615173779073,25,0
1438.5367411725106,19119.982421875,3.7907960414886475,893.4301403792008,1666.9619602635742,26,0
1438.55757522793,19135.306640625,3.7924273014068604,893.4305187043298,1666.9612831197894,27,0
1438.5784092814852,19126.435546875,3.7921833992004395,893.4309969329304,1666.961128364548,28,0
1438.5992433341105,19122.8828125,3.79113507270813,893.4312051152824,1666.9610967962549,29,0
1438.620077385338,19117.146484375,3.790626287460327,893.4310822297944,1666.9600116377446,30,0
1438.6409114351682,19128.259765625,3.7919511795043945,893.4314942898316,1666.96057261584,31,0
1438.661745483602,19134.787109375,3.7927684783935547,893.4316102827179,1666.9607498399257,32,0
1438.682579530639,19129.029296875,3.7917263507843018,893.4316712328683,1666.9605367047363,33,0
1438.703413575813,19139.099609375,3.7928338050842285,893.4319938277735,1666.960916234753,34,0
1438.7242476200565,19129.408203125,3.791884422302246,893.4320692664589,1666.9604372873819,35,0
1438.7450816629025,19143.068359375,3.793030023574829,893.4324606624195,1666.9604679162894,36,0
1438.7659157038852,19101.048828125,3.789316415786743,893.4326063165094,1666.9604945920325,37,0
1438.786749743937,19119.896484375,3.791424036026001,893.432334757018,1666.9601890930453,38,0
1438.8075837821266,19132.626953125,3.7921180725097656,893.4330173296903,1666.9602533150332,39,0
1438.8284178189178,19125.78515625,3.7918100357055664,893.4330155857061,1666.96102678638,40,0
1438.8492518543135,19119.55859375,3.7906970977783203,893.4328570838271,1666.959686587197,41,0
1438.8700858883126,19086.650390625,3.787431478500366,893.4335343657856,1666.9606475760986,42,0
1438.8909199209138,18998.95703125,3.778886318206787,893.4332974731035,1666.9602663864362,43,0
1438.9117539516524,18996.669921875,3.7785515785217285,893.4335956677235,1666.9607921490147,44,0
1438.93258798146,19001.748046875,3.779031991958618,893.4341547588396,1666.9603767822553,45,0
1438.953422009404,18997.62109375,3.7787067890167236,893.4340190632935,1666.9601892229105,46,0
1438.9742560359514,19018.73828125,3.780796527862549,893.4345085269523,1666.9604572238275,47,0
1438.9950900611025,19020.150390625,3.7809648513793945,893.4341448514666,1666.9614224151874,48,0
1439.0159240848561,19012.40625,3.7800650596618652,893.434407909227,1666.9603112384882,49,0
1439.0367581072135,19024.796875,3.7814226150512695,893.4350338710396,1666.959914145252,50,0
1439.0575921277082,19063.076171875,3.785224437713623,893.4347207807243,1666.9609306122406,51,0
1439.07842614727,19143.27734375,3.7931199073791504,893.4351098528898,1666.960426465904,52,0
1439.0992601649705,19143.537109375,3.7931151390075684,893.4353464500962,1666.9603012822233,53,0
1439.1200941812735,19130.044921875,3.7918310165405273,893.4354316883629,1666.9609495753928,54,0
1439.1409281961792,19137.255859375,3.792722463607788,893.4353530595947,1666.9606622339136,55,0
1439.1617622096885,19133.8828125,3.7923927307128906,893.4356436828565,1666.9606734305798,56,0
1439.1825962218008,19122.646484375,3.7908408641815186,893.4356056632786,1666.9614798645055,57,0
1439.2034302320506,19142.51171875,3.792922258377075,893.4361537615272,1666.9601253590718,58,0
1439.2242642413694,19144.599609375,3.793278694152832,893.4357994793938,1666.9619627072339,59,0
1439.245098248825,19148.83984375,3.7943859100341797,893.436289983605,1666.9605727888622,60,0
1439.265932255349,19138.94921875,3.7927980422973633,893.4360628269801,1666.9616014085723,61,0
1439.2867662600106,19143.208984375,3.793226480484009,893.4363036882878,1666.9608722210257,62,0
1439.3076002632752,19140.9921875,3.7929954528808594,893.4362655466406,1666.9616710286577,63,0
1439.3284342656084,19129.16015625,3.7916531562805176,893.4365115699403,1666.9604015236678,64,0
1439.349268266079,19139.8984375,3.7938036918640137,893.4365639823267,1666.9617173478423,65,0
1439.3701022651526,19135.2421875,3.792473316192627,893.4369890782551,1666.9608041302226,66,0
1439.3909362628306,19145.671875,3.7933084964752197,893.4369795441181,1666.9616805247474,67,0
1439.4117702591102,19136.265625,3.7924892902374268,893.4367127479952,1666.9615148317453,68,0
1439.432604253992,19129.646484375,3.791581869125366,893.4371742774606,1666.961619797437,69,0
1439.453438247478,19147.98046875,3.7935738563537598,893.4374275214749,1666.9610441920993,70,0
1439.4742722395672,19156.16015625,3.7944369316101074,893.4372315635351,1666.9623101183997,71,0
1439.495106230258,19150.103515625,3.7937872409820557,893.437233416452,1666.9614599652846,72,0
1439.515940219553,19147.94140625,3.7935473918914795,893.4371341513233,1666.9636181287235,73,0
1439.5367742074513,19147.357421875,3.7935214042663574,893.437915300353,1666.9612449452727,74,0
1439.557608193953,19156.23046875,3.7942938804626465,893.4376270647707,1666.9620503410995,75,0
1439.5784421795229,19136.587890625,3.792492389678955,893.4377620131716,1666.9623530034346,76,0
1439.5992761632292,19147.224609375,3.793394088745117,893.437743468349,1666.9625190712304,77,0
1439.6201101455385,19158.6640625,3.7944610118865967,893.4382225715642,1666.9621710982385,78,0
1439.640944126917,19147.18359375,3.7933990955352783,893.4380558554528,1666.9621851767527,79,0
1439.6617781064335,19146.73046875,3.793673515319824,893.4377928530145,1666.9626420567276,80,0
1439.6826120850178,19144.443359375,3.793431282043457,893.438238755687,1666.962152205861,81,0
1439.70344606174,19156.85546875,3.7942452430725098,893.4381871278028,1666.9634593905575,82,0
1439.7242800375316,19157.87109375,3.7944295406341553,893.4387316835953,1666.9628175964922,83,0
1439.7451140119251,19155.62890625,3.794374942779541,893.438655522783,1666.9621255945085,84,0
1439.765947984921,19152.314453125,3.793753147125244,893.4385323988361,1666.9638976222175,85,0
1439.786781956521,19156.388671875,3.794342279434204,893.4389352975218,1666.9629136937324,86,0
1439.807615927189,19157.72265625,3.7944605350494385,893.4389605830669,1666.9627380934419,87,0
1439.828449895995,19154.2578125,3.7940597534179688,893.4390701316818,1666.9633432386934,88,0
1439.84928386387,19160.28125,3.794923782348633,893.4389957025255,1666.9628224647668,89,0
1439.870117830347,19159.8671875,3.7947421073913574,893.4391988533569,1666.9634538574078,90,0
1439.8909517954285,19153.9609375,3.7940473556518555,893.4392128180998,1666.963455997189,91,0
1439.9117857591118,19148.412109375,3.7935478687286377,893.4391837410127,1666.9633615767748,92,0
1439.9326197213986,19152.54296875,3.793794870376587,893.4394386589595,1666.9636503628046,93,0
1439.9534536827532,19163.625,3.795088052749634,893.439863741284,1666.9640633102508,94,0
1439.9742876427108,19154.85546875,3.7940900325775146,893.43972203421,1666.9641241470881,95,0
1439.9951216012726,19151.552734375,3.793893814086914,893.4395237298196,1666.9639726732544,96,0
1440.015955558436,19155.95703125,3.79430890083313,893.4395338937687,1666.9644467441897,97,0
1440.0367895142044,19154.599609375,3.7941293716430664,893.4394354555424,1666.9639616178188,98,0
1440.0576234690411,19152.533203125,3.793942451477051,893.4401266056719,1666.9635453968078,99,0
1440.078457422479,19150.40234375,3.793750762939453,893.4393510315037,1666.9650422065015,100,0
1440.0992913745215,19151.31640625,3.794050455093384,893.4399690991481,1666.9630590652732,101,0
1440.120125325632,19159.953125,3.794879913330078,893.4400287347593,1666.9646138705243,102,0
1440.1409592753455,19156.71875,3.794430732727051,893.4400612202087,1666.9652643720995,103,0
1440.1617932236618,19162.4296875,3.794938325881958,893.4401649360871,1666.964737708492,104,0
1440.1826271705816,19160.765625,3.794743776321411,893.4400935337225,1666.9648541376666,105,0
1440.203461116571,19157.236328125,3.7944304943084717,893.44050340113,1666.965117492421,106,0
1440.2242950611621,19162.46875,3.7949302196502686,893.4406657494142,1666.9651871017809,107,0
1440.2451290043564,19162.94140625,3.7949001789093018,893.4403567394281,1666.9655977632608,108,0
1440.26596294662,19160.486328125,3.7947444915771484,893.4403582904637,1666.9650907390076,109,0
1440.286796887486,19156.998046875,3.794285297393799,893.4400815289839,1666.9657326416598,110,0
1440.3076308269551,19159.92578125,3.7946207523345947,893.4405298529584,1666.965849066788,111,0
1440.3284647654925,19155.970703125,3.794212579727173,893.4403569760448,1666.9657007259589,112,0
1440.3492987026339,19159.470703125,3.794609308242798,893.4407980028134,1666.965660748922,113,0
1440.370132638843,19155.34765625,3.7941670417785645,893.4407267909643,1666.965990164912,114,0
1440.3909665731906,19165.623046875,3.795830249786377,893.440761257313,1666.9662509009916,115,0
1440.4118005070718,19162.060546875,3.794851064682007,893.4409781647594,1666.9660370911147,116,0
1440.4326344390906,19166.7734375,3.795402765274048,893.440986436081,1666.9661656733638,117,0
1440.453468370177,19162.892578125,3.7950761318206787,893.4413169689018,1666.966165866628,118,0
1440.4743022998675,19161.109375,3.7947514057159424,893.440894339303,1666.966723189509,119,0
1440.4951362286265,19160.115234375,3.794595956802368,893.4410644253163,1666.966232674912,120,0
1440.5159701559878,19157.84765625,3.794501304626465,893.4411466677228,1666.9672315002683,121,0
1440.536804082419,19168.27734375,3.7954282760620117,893.4408084919256,1666.966733646432,122,0
1440.557638007453,19164.55859375,3.7953133583068848,893.4415694841879,1666.966660922149,123,0
1440.57847193109,19168.09765625,3.796339988708496,893.4415067618253,1666.9672993971103,124,0
1440.5993058537952,19166.52734375,3.7954864501953125,893.441143092888,1666.9673406126321,125,0
1440.6201397751036,19168.013671875,3.795487880706787,893.4413589742962,1666.9669198350157,126,0
1440.640973695481,19169.796875,3.7958240509033203,893.4414969058382,1666.9672972396356,127,0
1440.6618076144605,19168.853515625,3.7956125736236572,893.4413023196504,1666.9671751956018,128,0
1440.6826415320438,19164.271484375,3.795193910598755,893.4415482258296,1666.9676841197308,129,0
1440.7034754486954,19169.896484375,3.795773983001709,893.4415184846908,1666.9671613166681,130,0
1440.7243093644165,19167.353515625,3.7954771518707275,893.4414095788178,1666.9679104357842,131,0
1440.74514327874,19162.1640625,3.7947564125061035,893.4419390799313,1666.9673863559456,132,0
1440.7659771916665,19162.486328125,3.7947916984558105,893.4417233842,1666.9677371676412,133,0
1440.786811103661,19164.376953125,3.7951767444610596,893.4416555002512,1666.9685038163357,134,0
1440.8076450147255,19161.34765625,3.794712781906128,893.4419224123169,1666.968194765667,135,0
1440.8284789243921,19163.990234375,3.7949671745300293,893.4418840743183,1666.96776740801,136,0
1440.8493128326616,19177.029296875,3.796334743499756,893.4416445726338,1666.9686888376282,137,0
1440.87014674,19164.341796875,3.7955312728881836,893.441856820931,1666.968435029942,138,0
1440.890980646408,19168.490234375,3.79543137550354,893.4421709423128,1666.968520675054,139,0
1440.911814551419,19168.552734375,3.7955307960510254,893.4422975917587,1666.968698210132,140,0
1440.932648455032,19169.49609375,3.7961008548736572,893.441990376098,1666.969221412661,141,0
1440.9534823577142,19171.6328125,3.7957358360290527,893.4421672286304,1666.9687864842629,142,0
1440.974316259464,19158.404296875,3.794414520263672,893.4422410935537,1666.9691040429486,143,0
1440.9951501598175,19177.791015625,3.796495199203491,893.4423033071804,1666.9692827951726,144,0
1441.015984058774,19170.70703125,3.795710325241089,893.4426137551472,1666.9700340087957,145,0
1441.0576518538935,19140.244140625,3.7929036617279053,893.4421693403593,1666.967933379797,146,0
1441.0784857495914,19140.72265625,3.792970895767212,893.4425312370855,1666.9684211942797,147,0
1441.1409874306291,19123.978515625,3.791194438934326,893.4421436814384,1666.9708334861023,148,0
1441.1826552117782,19144.169921875,3.793358087539673,893.4426615886956,1666.9689708487663,149,0
1441.2034891009555,19129.41015625,3.791718006134033,893.4421388212869,1666.9699038457022,150,0
1441.224322988737,19159.31640625,3.794660806655884,893.442448088958,1666.9697426976923,151,0
1441.2451568755876,19165.4140625,3.795287847518921,893.4420982348677,1666.971412814139,152,0
1441.2868246460266,19138.234375,3.793039560317993,893.4421605565838,1666.971382867105,153,0
1441.3076585291506,19128.595703125,3.7917728424072266,893.4427391727618,1666.9697524444189,154,0
1441.3284924113436,19136.791015625,3.7923295497894287,893.4424793456077,1666.971947569702,155,0
1441.349326292605,19158.80859375,3.794691801071167,893.4425064237444,1666.971082318736,156,0
1441.370160172935,19141.021484375,3.7930185794830322,893.4426213990159,1666.9712269863185,157,0
1441.3909940518683,19154.85546875,3.7941935062408447,893.4428314189063,1666.971317485286,158,0
1441.411827929871,19148.21484375,3.793541669845581,893.4425463471831,1666.972399388365,159,0
1441.432661806476,19150.017578125,3.793696880340576,893.4431452973739,1666.9698263117618,160,0
1441.4534956821494,19130.90234375,3.792365550994873,893.442522953241,1666.9732091974884,161,0
1441.474329556892,19139.416015625,3.792764902114868,893.442881003147,1666.970667216123,162,0
1441.495163430237,19141.837890625,3.7929184436798096,893.4427243883322,1666.97330929336,163,0
1441.5159973026512,19144.517578125,3.7931454181671143,893.4433696608945,1666.9707113900204,164,0
1441.5368311736675,19162.056640625,3.79489803314209,893.4430159730334,1666.9727273609865,165,0
1441.5576650442194,19157.59375,3.7943780422210693,893.443446685989,1666.9707163562548,166,0
1441.5784989129083,19075.818359375,3.7863218784332275,893.4429720093615,1666.9721206950799,167,0
1441.599332781132,19043.88671875,3.7834115028381348,893.4430975122225,1666.972198429922,168,0
1441.6201666479574,19026.28515625,3.781522750854492,893.4430358563882,1666.9734347004319,169,0
1441.6410005138518,19039.45703125,3.783175230026245,893.443575274189,1666.971713219525,170,0
1441.66183437835,19038.810546875,3.783020496368408,893.4429181895206,1666.9737630273319,171,0
1441.682668241916,19046.658203125,3.7834463119506836,893.4437582490428,1666.9712353165628,172,0
1441.7035021045515,19032.892578125,3.7821438312530518,893.4433982491352,1666.973881282414,173,0
1441.7243359662555,19048.068359375,3.7836496829986572,893.443648680338,1666.9738298672016,174,0
1441.745169826563,19050.923828125,3.7841196060180664,893.4430907286115,1666.974595945714,175,0
1441.7660036859384,19105.390625,3.789259672164917,893.4433203954013,1666.9716491122433,176,0
1441.7868375439166,19171.0078125,3.7958309650421143,893.4433991500329,1666.9745159367437,177,0
1441.80767140143,19153.970703125,3.7941980361938477,893.444258992684,1666.9717726788047,178,0
1441.8285052575457,19155.650390625,3.7942700386047363,893.4435654618268,1666.9733434509012,179,0
1441.8493391122638,19169.623046875,3.7957170009613037,893.443469215567,1666.9744763214342,180,0
1441.870172966517,19174.490234375,3.7964730262756348,893.4435994570423,1666.9741365888456,181,0
1441.8910068193736,19153.36328125,3.794748067855835,893.4438469495097,1666.9733546970067,182,0
1441.9118406708335,19160.51171875,3.7950046062469482,893.4435455873805,1666.9745401639848,183,0
1441.9326745218268,19164.466796875,3.795692205429077,893.4442300799402,1666.9743535399325,184,0
1441.9535083714236,19168.279296875,3.7956507205963135,893.4439121006191,1666.974213544431,185,0
1441.9743422200895,19159.833984375,3.794743776321411,893.4435453361345,1666.9740536920347,186,0
1441.995176067358,19174.11328125,3.796177864074707,893.443975660034,1666.9738910881024,187,0
1442.0160099141603,19157.171875,3.7943742275238037,893.4436099157442,1666.9739147188268,188,0
1442.0368437595662,19154.85546875,3.7944066524505615,893.444017469512,1666.9748362212542,189,0
1442.057677603575,19171.626953125,3.7958195209503174,893.4441147071177,1666.974310155602,190,0
1442.0785114471191,19167.5078125,3.7954046726226807,893.4438511245532,1666.9752588430902,191,0
1442.0993452892644,19164.2578125,3.7951626777648926,893.443883814372,1666.9746342526064,192,0
1442.1201791304788,19173.140625,3.7959840297698975,893.4439566145694,1666.9752152796964,193,0
1442.1410129707624,19168.5703125,3.795593023300171,893.4443074463325,1666.9761275705837,194,0
1442.1618468096485,19172.95703125,3.7960822582244873,893.4440103484889,1666.9754197858026,195,0
1442.1826806476035,19167.19140625,3.795346736907959,893.4441206386299,1666.975519602792,196,0
1442.2035144846268,19178.900390625,3.7969048023223877,893.4442879631415,1666.975538176363,197,0
1442.22434832072,19165.953125,3.7953848838806152,893.4443999447975,1666.9755266831605,198,0
1442.2451821554164,19173.083984375,3.7958779335021973,893.4445085930298,1666.9759707491958,199,0
1442.2660159891811,19165.115234375,3.795433759689331,893.444108457811,1666.9751683407321,200,0
1442.2868498220137,19174.349609375,3.7961502075195312,893.444316745689,1666.9757595341962,201,0
1442.3076836539149,19170.046875,3.795654535293579,893.4441007911411,1666.9760500160774,202,0
1442.3285174844195,19174.83203125,3.796093463897705,893.4447985635671,1666.9747223176864,203,0
1442.349351313992,19172.759765625,3.7960991859436035,893.4439163387224,1666.976416137784,204,0
1442.370185142634,19173.25390625,3.7960872650146484,893.4447034855684,1666.9768807377955,205,0
1442.391018970345,19180.7109375,3.796841621398926,893.4443871579562,1666.9765812394533,206,0
