time,flux,flux_err,centroid_col,centroid_row,cadenceno,quality
1624.9728012059975,3177.1181640625,1.5685957670211792,360.55877499601183,1240.999952318658,0,0
1624.993634984492,3199.93310546875,1.573927640914917,360.55857281104664,1241.0,1,0
1625.0144687625207,3218.66259765625,1.5786515474319458,360.5579203379461,1240.9999529340982,2,0
1625.035302540083,3245.50732421875,1.584716796875,360.55716605090663,1241.0000466766032,3,0
1625.056136317413,3272.353271484375,1.5913748741149902,360.5557868995839,1241.0,4,0
1625.0769700945102,3300.01416015625,1.5978872776031494,360.55459634184217,1241.0000459056387,5,0
1625.0978038716066,3323.6845703125,1.6030970811843872,360.5535653423156,1241.0000455787108,6,0
1625.1186376487035,3340.0224609375,1.6073392629623413,360.55281486399997,1240.9999546442398,7,0
1625.139471425801,3352.729248046875,1.6102360486984253,360.55136189113654,1241.0,8,0
1625.1603052031305,3350.6474609375,1.6097251176834106,360.55081275103373,1240.9999547880643,9,0
1625.181138980693,3378.013671875,1.6161125898361206,360.55064296608987,1241.0,10,0
1625.2019727584889,3382.34521484375,1.6171241998672485,360.5482261695214,1240.9999552117692,11,0
1625.2436403152446,3426.984375,1.6275006532669067,360.54915958107074,1240.9999557951712,12,0
1625.2853078736289,3465.6640625,1.637400507926941,360.54547750109896,1240.9999562885337,13,0
1625.326975434109,3540.0048828125,1.6536204814910889,360.54484453643,1240.9999572064835,14,0
1625.347809215165,3569.152099609375,1.6602587699890137,360.54291322254835,1241.0,15,0
1625.368642996686,3602.201171875,1.6680084466934204,360.54258219936054,1241.0,16,0
1625.3894767789056,3639.75830078125,1.6762193441390991,360.543577568426,1241.0,17,0
1625.410310561822,3669.79443359375,1.6828638315200806,360.5432248578616,1241.000041280039,18,0
1625.4311443452061,3704.00390625,1.690760850906372,360.54223845869916,1240.9999591012154,19,0
1625.4519781292875,3722.94775390625,1.6952425241470337,360.5413778590528,1241.0000406906752,20,0
1625.472811913835,3747.8447265625,1.7007794380187988,360.54121082742085,1241.0000404203665,21,0
1625.4936456990815,3782.00537109375,1.7082043886184692,360.5403794270437,1241.000040055273,22,0
1625.5144794850262,3825.49560546875,1.7181475162506104,360.5406171841245,1240.9999604000961,23,0
1625.5353132714358,3868.857177734375,1.7274807691574097,360.5396589818323,1241.0,24,0
1625.5561470585444,3898.19482421875,1.7339717149734497,360.53976431148084,1241.000038861387,25,0
1625.5769808461196,3932.395751953125,1.741198182106018,360.5384160878689,1241.0,26,0
1625.5978146343925,3961.996337890625,1.7475190162658691,360.53890223009296,1241.0,27,0
1625.6186484233635,3989.42724609375,1.7537755966186523,360.5384891241461,1240.9999620273165,28,0
1625.6394822128009,4017.13232421875,1.7596254348754883,360.5382299348481,1240.999962289204,29,0
1625.6603160029358,4054.0390625,1.7676098346710205,360.53770978788515,1240.9999626325116,30,0
1625.6811497935369,4097.6103515625,1.7767542600631714,360.5371022387524,1241.0,31,0
1625.7019835848369,4141.77197265625,1.786145567893982,360.5358931234732,1241.0000365759531,32,0
1625.7228173766025,4201.0595703125,1.7994462251663208,360.53561921111327,1241.0,33,0
1625.7436511688334,4250.513671875,1.8090044260025024,360.53567485869127,1241.0,34,0
1625.764484961529,4327.33349609375,1.8249775171279907,360.53559563408425,1241.0000350075302,35,0
1625.785318754925,4390.2099609375,1.8380581140518188,360.53532840626616,1241.0000690123065,36,0
1625.806152548786,4435.71826171875,1.8473641872406006,360.5347625823793,1241.0,37,0
1625.8269863431124,4489.16064453125,1.858357548713684,360.5339755015363,1241.0,38,0
1625.8478201379044,4521.34130859375,1.8653994798660278,360.53283786409224,1241.0,39,0
1625.868653933162,4556.6513671875,1.8722776174545288,360.5326321562465,1241.0,40,0
1625.889487728885,4559.9326171875,1.8728625774383545,360.53262741384225,1241.0000664436388,41,0
1625.9103215250739,4585.84521484375,1.8783595561981201,360.53250975770277,1241.0,42,0
1625.931155321729,4580.22216796875,1.8768888711929321,360.53146516180993,1241.0,43,0
1625.9519891188506,4570.42919921875,1.8749921321868896,360.5316230707357,1241.0,44,0
1625.9728229162024,4556.80908203125,1.8723102807998657,360.5315437866903,1241.0,45,0
1625.993656714254,4550.1787109375,1.8708804845809937,360.5315726889161,1241.0000665860694,46,0
1626.0144905123066,4549.3037109375,1.8707598447799683,360.53218587923504,1241.0000665988764,47,0
1626.0353243110555,4541.5576171875,1.8691158294677734,360.532697172703,1241.0000667124677,48,0
1626.056158110039,4549.119140625,1.8708308935165405,360.5317024050415,1241.0,49,0
1626.076991909255,4563.57958984375,1.8735308647155762,360.53200612526297,1241.0,50,0
1626.097825708937,4571.6728515625,1.8750613927841187,360.53195848970597,1241.0,51,0
1626.1186595090844,4583.279296875,1.877702236175537,360.53156913994866,1241.0,52,0
1626.139493309231,4593.8701171875,1.8797659873962402,360.5310312357904,1240.9999340472177,53,0
1626.160327109844,4604.29296875,1.8816956281661987,360.5320015436511,1241.0000658034833,54,0
1626.1811609109225,4602.53662109375,1.8820974826812744,360.5324426227682,1241.0,55,0
1626.2019947120011,4596.2783203125,1.8808825016021729,360.531207951236,1241.0000659182265,56,0
1626.2228285135457,4571.03515625,1.8753806352615356,360.53199675692304,1241.0000662822545,57,0
1626.2436623153226,4553.7021484375,1.8717821836471558,360.53181670305605,1241.0000665345483,58,0
1626.2644961173319,4519.591796875,1.8649635314941406,360.53213683178836,1240.9999329633008,59,0
1626.2853299195745,4488.478515625,1.8586277961730957,360.53072335593606,1241.0,60,0
1626.3061637220499,4465.31640625,1.8541061878204346,360.53125828324386,1240.9999321484777,61,0
1626.326997524758,4446.5439453125,1.8498132228851318,360.53182257726934,1241.0,62,0
1626.3478313276992,4432.0390625,1.846946120262146,360.5321640870543,1241.000068360976,63,0
1626.368665130873,4424.20849609375,1.845868706703186,360.5318016806281,1241.0,64,0
1626.3894989342805,4421.017578125,1.8447048664093018,360.5321969454324,1241.000068531398,65,0
1626.410332737687,4418.06591796875,1.8441262245178223,360.53207654915633,1241.0,66,0
1626.4311665413265,4413.41357421875,1.8434830904006958,360.5318318367822,1241.0,67,0
1626.4520003451994,4417.0302734375,1.8442280292510986,360.5319848557574,1241.000068593262,68,0
1626.472834149304,4411.6591796875,1.8430668115615845,360.53234034061467,1241.0,69,0
1626.493667953409,4414.9462890625,1.8436498641967773,360.5316383002961,1241.0000686256403,70,0
1626.514501757748,4418.1728515625,1.8444145917892456,360.5319564701808,1241.0000685755233,71,0
1626.5353355623183,4423.2509765625,1.8453185558319092,360.53180812331146,1240.9999315032048,72,0
1626.5561693668897,4421.3388671875,1.8448519706726074,360.531554123943,1240.999931473582,73,0
1626.577003171693,4437.00146484375,1.848061203956604,360.5311423081312,1241.0,74,0
1626.597836976497,4444.31640625,1.8497200012207031,360.53123711815914,1241.0,75,0
1626.6186707815336,4448.900390625,1.8506370782852173,360.53088368482906,1241.0000681018878,76,0
1626.6395045865702,4448.27197265625,1.8503899574279785,360.53076428357616,1241.0,77,0
1626.660338391607,4450.7197265625,1.8510944843292236,360.53119036663884,1240.9999319259502,78,0
1626.681172196877,4447.08154296875,1.8502670526504517,360.5316088511788,1241.0,79,0
1626.7020060023785,4451.7587890625,1.8512002229690552,360.5315940680046,1241.0000680581609,80,0
1626.722839807648,4458.73486328125,1.852634072303772,360.5307271355197,1241.0,81,0
1626.7436736131508,4470.142578125,1.8549535274505615,360.5303240838847,1241.0,82,0
1626.764507418652,4493.5830078125,1.8598028421401978,360.52996449581207,1240.9999325752935,83,0
1626.785341224154,4518.3994140625,1.8647311925888062,360.5302554702009,1240.9999329456102,84,0
1626.8061750298898,4531.4990234375,1.8684204816818237,360.53011025256154,1241.0,85,0
1626.8270088356248,4552.3759765625,1.8721855878829956,360.5297899362734,1240.9999334460692,86,0
1626.847842641127,4558.994140625,1.8731814622879028,360.5302342232152,1241.0,87,0
1626.868676446862,4563.3154296875,1.8739099502563477,360.5295092272678,1241.0,88,0
1626.8895102525971,4556.09716796875,1.8726826906204224,360.5313110104109,1241.0,89,0
1626.910344058565,4538.1845703125,1.8689953088760376,360.5297382174392,1241.0000667620523,90,0
1626.9311778643,4513.84765625,1.8642022609710693,360.5287224318395,1240.9999328779927,91,0
1626.952011670035,4485.6015625,1.8583779335021973,360.52987940363,1240.9999324553214,92,0
1626.9728454757706,4448.12646484375,1.8506503105163574,360.52921728040565,1241.0,93,0
1626.9936792817384,4421.9775390625,1.8455259799957275,360.5308770445915,1241.0,94,0
1627.0145130874726,4404.9736328125,1.8417407274246216,360.530462059821,1241.0000687810054,95,0
1627.035346893208,4380.40625,1.8369325399398804,360.5304045603469,1241.0000691667617,96,0
1627.0561806989435,4371.1572265625,1.834962248802185,360.5303134561272,1241.0,97,0
1627.0770145046777,4351.833984375,1.830758810043335,360.5317344429589,1241.0000696208808,98,0
1627.097848310413,4338.20361328125,1.8279311656951904,360.5309014174011,1240.9999650801872,99,0
1627.1186821159158,4318.77099609375,1.8239283561706543,360.5302364892175,1241.0,100,0
1627.1395159216504,4304.81640625,1.8212593793869019,360.5304467402519,1241.000035190643,101,0
1627.1603497271526,4297.65771484375,1.8198221921920776,360.5309415796191,1240.999964750739,102,0
1627.1811835326548,4279.6953125,1.8160330057144165,360.53016224185427,1241.0000353972064,103,0
1627.2020173381566,4265.0927734375,1.8130923509597778,360.5309251039793,1240.9999289632062,104,0
1627.222851143659,4245.64208984375,1.8087756633758545,360.5311614333401,1241.0000356811183,105,0
1627.243684948929,4215.82275390625,1.802441120147705,360.53038607228046,1240.9999640665021,106,0
1627.264518754198,4191.55029296875,1.7973843812942505,360.5307604759622,1241.0000361415819,107,0
1627.2853525594674,4157.7080078125,1.7909680604934692,360.53100380904914,1241.0000728715231,108,0
1627.3061863647372,4132.7626953125,1.7850829362869263,360.53169308042226,1241.0,109,0
1627.3270201697735,4095.08740234375,1.7771825790405273,360.5317181087905,1240.9999630070758,110,0
1627.3478539748094,4065.1796875,1.7704817056655884,360.53313685636203,1240.999962734917,111,0
1627.368687779613,4022.04150390625,1.7615545988082886,360.53229494311194,1241.0000376647674,112,0
1627.3895215844168,3994.888427734375,1.7554447650909424,360.5315147903543,1241.0,113,0
1627.410355389221,3973.2587890625,1.7508069276809692,360.5321102354928,1241.0,114,0
1627.4311891937919,3955.76611328125,1.746851921081543,360.53205788030203,1240.9999617041924,115,0
1627.4520229983625,3934.33056640625,1.7425438165664673,360.5316322947948,1241.0,116,0
1627.4728568027003,3927.542724609375,1.74070405960083,360.53281938483445,1241.0,117,0
1627.4936906070384,3914.690185546875,1.7381291389465332,360.5332697706724,1241.0,118,0
1627.5145244113764,3908.170166015625,1.7366362810134888,360.5334292236972,1241.0,119,0
1627.5353582154817,3900.34912109375,1.734749674797058,360.5334578547719,1241.0000388399226,120,0
1627.556192019355,3896.1611328125,1.7340877056121826,360.53219527735257,1241.0000388816716,121,0
1627.5770258232274,3888.3974609375,1.7324762344360352,360.5329888296989,1241.0,122,0
1627.5978596270988,3895.4267578125,1.7337415218353271,360.5335975278503,1241.0000388890016,123,0
1627.618693430738,3893.4501953125,1.7332803010940552,360.5340038596471,1240.9999610912557,124,0
1627.6395272341451,3892.150146484375,1.733148217201233,360.53476407685815,1241.0,125,0
1627.6603610375514,3882.8173828125,1.731391429901123,360.5339477691804,1241.000039015293,126,0
1627.6811948407249,3885.144775390625,1.7314902544021606,360.5336532325622,1241.0,127,0
1627.702028643667,3878.994384765625,1.7300139665603638,360.53317267904475,1241.0,128,0
1627.7228624466084,3872.084228515625,1.7285650968551636,360.53385482788616,1241.0,129,0
1627.7436962495485,3878.120849609375,1.7302240133285522,360.5343032385145,1241.0,130,0
1627.7645300520244,3874.0185546875,1.7292121648788452,360.5340795740857,1241.0,131,0
1627.785363854733,3882.98388671875,1.7309843301773071,360.534663711398,1240.99996098638,132,0
1627.8061976569757,3875.55419921875,1.7300488948822021,360.53382662635823,1241.0,133,0
1627.8270314592169,3874.1025390625,1.7291557788848877,360.5343238517187,1240.9999608969415,134,0
1627.8478652612275,3876.8671875,1.7297682762145996,360.53371837965176,1241.0000390751734,135,0
1627.8686990630044,3871.156005859375,1.7284246683120728,360.53369386403034,1241.0,136,0
1627.8895328647804,3872.250244140625,1.7289115190505981,360.5346139968149,1241.0,137,0
1627.910366666325,3861.14111328125,1.7266862392425537,360.5340345264572,1241.0,138,0
1627.9312004676372,3851.13525390625,1.7241241931915283,360.5357540929046,1241.00003933626,139,0
1627.9520342687147,3837.095458984375,1.7210042476654053,360.53477683003405,1241.0,140,0
1627.9728680697926,3825.62841796875,1.718507170677185,360.53429730384113,1241.000039598529,141,0
1627.993701870639,3804.734130859375,1.7140260934829712,360.5342727126484,1241.0,142,0
1628.0145356712515,3790.02392578125,1.710663914680481,360.5347363214154,1241.0000399705282,143,0
1628.0353694718629,3769.63232421875,1.7061350345611572,360.53418344223155,1241.0,144,0
1628.0562032720104,3764.01318359375,1.7051301002502441,360.536043209107,1240.9999597532606,145,0
1628.077037072158,3756.958984375,1.7036348581314087,360.5357785591114,1241.0,146,0
1628.0978708720725,3741.2119140625,1.6998289823532104,360.535878645033,1240.9999595079719,147,0
1628.2228736675995,3640.38916015625,1.6768693923950195,360.5365091381322,1240.999958386521,148,0
1628.2437074661166,3634.736328125,1.6757593154907227,360.5368144087674,1241.0,149,0
1628.2645412644006,3630.341552734375,1.6752471923828125,360.5352534139652,1241.0,150,0
1628.3270426583226,3559.996337890625,1.6589899063110352,360.53679765350444,1241.0,151,0
1628.3478764556755,3545.24560546875,1.6556532382965088,360.53610455408824,1241.0000427302575,152,0
1628.3687102530284,3531.68603515625,1.6522972583770752,360.53589255364346,1240.9999571056837,153,0
1628.4103778470362,3493.53125,1.6436089277267456,360.53758659279873,1240.9999566372112,154,0
1628.431211643458,3492.54052734375,1.6434104442596436,360.53720460725236,1241.0000433750895,155,0
1628.452045439879,3469.64453125,1.6382864713668823,360.53692329765187,1241.0,156,0
1628.4937130320245,3450.538818359375,1.6340007781982422,360.53619484672026,1241.0,157,0
1628.5770482137536,3436.131103515625,1.630213975906372,360.53665095894365,1241.0,158,0
1628.5978820085445,3432.049072265625,1.6293036937713623,360.5373786258935,1241.0,159,0
1628.63954959743,3435.44287109375,1.630928874015808,360.53827045218964,1240.999955904009,160,0
1628.6603833915246,3429.2392578125,1.6285525560379028,360.53699337413406,1241.0000441757622,161,0
1628.6812171853844,3431.9248046875,1.6291394233703613,360.53656402528986,1241.0000441411937,162,0
1628.7020509787785,3430.071044921875,1.6286944150924683,360.53710607960915,1241.0,163,0
1628.7437185653366,3442.829833984375,1.6318280696868896,360.53705313161106,1241.0,164,0
1628.764552358265,3431.735107421875,1.6291412115097046,360.5376698507234,1241.0,165,0
1628.7853861507285,3436.23486328125,1.6302995681762695,360.53776631427843,1240.9999559141725,166,0
1628.806219943193,3429.15478515625,1.6287310123443604,360.53631721555837,1241.0,167,0
1628.847887527188,3448.306396484375,1.6332048177719116,360.537555517056,1241.0,168,0
1628.8687213187204,3453.214111328125,1.634323000907898,360.53795875601344,1241.0,169,0
1628.8895551102523,3439.1337890625,1.6309499740600586,360.53734798063306,1241.0,170,0
1628.9103889013195,3431.32275390625,1.6293060779571533,360.53711321296265,1240.9999558510613,171,0
1628.9312226921534,3430.943359375,1.6290708780288696,360.53687167796755,1241.0000441538207,172,0
1628.952056482754,3422.9921875,1.6270583868026733,360.5381243966011,1241.0000442563844,173,0
1628.9728902728884,3413.060546875,1.6249583959579468,360.537179031947,1240.9999556148343,174,0
1628.993724063024,3405.80078125,1.6233114004135132,360.53726527150945,1241.0000444797765,175,0
1629.0145578529275,3404.71142578125,1.6231766939163208,360.5368322905028,1241.0,176,0
1629.0353916423635,3410.6806640625,1.6242133378982544,360.5384539591134,1240.9999555838635,177,0
1629.0562254315669,3409.113525390625,1.6236743927001953,360.5392707420776,1241.0,178,0
1629.077059220539,3392.1083984375,1.619911551475525,360.53720977918937,1241.0,179,0
1629.0978930092779,3378.92041015625,1.6167062520980835,360.5364149485501,1240.999955166373,180,0
1629.1187267977825,3380.17041015625,1.6171621084213257,360.5376860088039,1241.0,181,0
1629.1395605860544,3365.8623046875,1.6136956214904785,360.53776297690246,1241.0,182,0
1629.1603943738614,3364.37548828125,1.6134101152420044,360.53913582268024,1240.9999549725474,183,0
1629.1812281614361,3360.53076171875,1.6124154329299927,360.5380489009087,1241.0,184,0
1629.20206194901,3341.93359375,1.6082574129104614,360.53842617484963,1241.0,185,0
1629.2228957358855,3344.798828125,1.6085888147354126,360.53813355565455,1240.9999547090079,186,0
1629.2437295227614,3347.29443359375,1.6093225479125977,360.5396564520757,1241.0,187,0
1629.2645633094044,3341.859375,1.608181357383728,360.5391371260152,1240.9999546691704,188,0
1629.2853970955816,3334.099609375,1.6062790155410767,360.5407320060408,1241.0000454363324,189,0
1629.306230881526,3308.63818359375,1.6001778841018677,360.54020002092653,1241.0,190,0
1629.3270646672365,3323.26318359375,1.603591799736023,360.5398035980672,1241.0,191,0
1629.347898452715,3312.71826171875,1.6014593839645386,360.5406855930926,1240.999954270407,192,0
1629.3687322377286,3310.12353515625,1.6003037691116333,360.54004914787777,1241.0000457654394,193,0
1629.3895660225094,3298.169921875,1.5977038145065308,360.5394083588614,1241.0,194,0
1629.4103998070564,3289.279052734375,1.5962963104248047,360.54070731091264,1241.0,195,0
1629.43123359137,3272.53662109375,1.5919901132583618,360.54015432349746,1241.000046291081,196,0
1629.4520673754519,3281.78125,1.5937093496322632,360.54015968099213,1240.9999538393188,197,0
1629.4729011590675,3278.5859375,1.5934702157974243,360.54121504751475,1241.0000462056694,198,0
1629.4937349424508,3265.803466796875,1.5903561115264893,360.54128579695595,1241.0,199,0
1629.5145687256015,3247.861328125,1.5856510400772095,360.5411203210646,1241.0000466427728,200,0
1629.535402508286,3252.5478515625,1.5870823860168457,360.5412021495168,1241.000046575566,201,0
1629.5562362909704,3256.12744140625,1.5877442359924316,360.54133507904044,1240.9999534756362,202,0
1629.5770700731891,3257.43212890625,1.588103175163269,360.53910877034355,1241.0,203,0
1629.5979038551764,3264.4169921875,1.5896977186203003,360.5412970871701,1240.9999535937786,204,0
1629.6187376366966,3252.1201171875,1.5866445302963257,360.5410920715483,1241.0,205,0
1629.639571417983,3270.760498046875,1.5910958051681519,360.5416744824508,1241.0,206,0
1629.660405199038,3267.222900390625,1.5903840065002441,360.54042104846275,1241.0,207,0
1629.681238979861,3258.36474609375,1.588088035583496,360.5396684479894,1240.9999535075813,208,0
1629.7020727602176,3264.229248046875,1.5895339250564575,360.540452060738,1241.0,209,0
1629.7229065403399,3269.59375,1.5908126831054688,360.5409836475647,1241.0000463327463,210,0
1629.7437403202312,3270.913330078125,1.5913758277893066,360.5421017892601,1241.0,211,0
1629.7645740996554,3267.32421875,1.5903834104537964,360.54086166289073,1240.9999536350704,212,0
1629.7854078790801,3266.2470703125,1.5902973413467407,360.5408906482228,1241.0,213,0
