time,flux,flux_err,centroid_col,centroid_row,cadenceno,quality
1437.9945152757305,2070.1513671875,1.2896664142608643,872.3979235559607,1031.8624059920937,0,0
1438.015349289239,1991.1754150390625,1.2662014961242676,872.3982593117619,1031.8636372804347,1,0
1438.0361833036804,1922.302978515625,1.245947241783142,872.3979897515201,1031.8661676966499,2,0
1438.057017318587,1857.1136474609375,1.2259787321090698,872.3985776425176,1031.8682445496509,3,0
1438.0778513339578,1789.8045654296875,1.205816388130188,872.398312459645,1031.8704612081274,4,0
1438.098685349796,1737.8017578125,1.1889963150024414,872.3977138321582,1031.8717850506798,5,0
1438.1195193656336,1697.611328125,1.1760566234588623,872.398232897327,1031.8728026537603,6,0
1438.1403533819362,1660.106201171875,1.1640965938568115,872.3987833456744,1031.8740200256036,7,0
1438.161187398704,1624.7176513671875,1.1531230211257935,872.3978665313467,1031.8758944049548,8,0
1438.1820214150075,1589.735595703125,1.1412642002105713,872.3974996302727,1031.877133850245,9,0
1438.2028554308454,1557.529296875,1.1306103467941284,872.3974269512073,1031.878048624217,10,0
1438.223689447149,1521.6697998046875,1.1190458536148071,872.396596062306,1031.8791648787346,11,0
1438.2445234629865,1492.458740234375,1.1087530851364136,872.3966191170911,1031.8793569060008,12,0
1438.265357478358,1468.96435546875,1.1004585027694702,872.3975196833807,1031.8792417866043,13,0
1438.2861914932641,1450.102783203125,1.0941256284713745,872.3962787882425,1031.8809162234425,14,0
1438.307025507704,1434.104248046875,1.0885674953460693,872.3960369889571,1031.880908212011,15,0
1438.3278595216784,1420.2408447265625,1.083899974822998,872.3954030207107,1031.8810293260292,16,0
1438.348693535188,1407.04541015625,1.0790077447891235,872.3962481594612,1031.8817371940488,17,0
1438.369527547766,1395.817138671875,1.076760172843933,872.3953436690118,1031.8821285808413,18,0
1438.390361559879,1383.3240966796875,1.071508526802063,872.3945884118967,1031.882823321633,19,0
1438.41119557106,1372.228271484375,1.0670433044433594,872.3940329956675,1031.8829097766682,20,0
1438.432029581309,1370.6854248046875,1.066192865371704,872.3941762392735,1031.882469171508,21,0
1438.4528635910924,1370.497314453125,1.066132664680481,872.3940252699848,1031.8815399041998,22,0
1438.4736975999458,1369.349609375,1.066192865371704,872.3933264310049,1031.8811567367748,23,0
1438.494531607866,1368.707763671875,1.0656542778015137,872.3934835763874,1031.8806762328745,24,0
1438.515365614855,1368.62890625,1.0654466152191162,872.3930871363477,1031.8801844448283,25,0
1438.5361996209144,1370.924560546875,1.0666968822479248,872.3929017928139,1031.8799995374252,26,0
1438.557033626043,1369.1331787109375,1.065641164779663,872.3928178906822,1031.8795246991804,27,0
1438.577867630238,1370.986572265625,1.0675880908966064,872.3924612674494,1031.8791844772945,28,0
1438.598701633503,1370.7606201171875,1.066662311553955,872.3922455985789,1031.8787768146303,29,0
1438.6195356353705,1369.041748046875,1.065682053565979,872.3915502991924,1031.8794920661176,30,0
1438.6403696363059,1370.8232421875,1.0660679340362549,872.3920975016082,1031.8780490791273,31,0
1438.6612036363115,1371.43701171875,1.0665305852890015,872.3912226012327,1031.8781815730429,32,0
1438.6820376349197,1368.83544921875,1.0669804811477661,872.3914174878495,1031.8784524791547,33,0
1438.7028716325965,1369.030517578125,1.0654927492141724,872.3918422736921,1031.8777990170038,34,0
1438.7237056293425,1370.6942138671875,1.0665823221206665,872.3912456193832,1031.8771824156915,35,0
1438.744539624691,1371.75634765625,1.0667277574539185,872.3907835160323,1031.8774060999544,36,0
1438.7653736191069,1370.212890625,1.065934658050537,872.3907028745498,1031.876668339453,37,0
1438.7862076121276,1370.280029296875,1.0659189224243164,872.3900006004276,1031.8771793672242,38,0
1438.807041604216,1372.2269287109375,1.0673391819000244,872.3902002000127,1031.8769206659952,39,0
1438.8278755949068,1372.7537841796875,1.0672879219055176,872.390151660663,1031.8757318751984,40,0
1438.848709584668,1370.2220458984375,1.0665611028671265,872.3899406553793,1031.8773712547302,41,0
1438.8695435730324,1373.7027587890625,1.0670989751815796,872.3893866087972,1031.875633176826,42,0
1438.890377560464,1372.12890625,1.066706895828247,872.3898541365671,1031.8754971873977,43,0
1438.9112115464995,1372.73046875,1.0668035745620728,872.3890657969013,1031.87560690328,44,0
1438.932045531138,1372.437744140625,1.0671480894088745,872.3895432695515,1031.875643622126,45,0
1438.952879514844,1371.5731201171875,1.0666427612304688,872.3891136441167,1031.8746587620228,46,0
1438.9737134976194,1374.7974853515625,1.067592740058899,872.3892695355255,1031.8744961305115,47,0
1438.9945474785331,1373.4644775390625,1.0668278932571411,872.3892193261634,1031.8731525444653,48,0
1439.0153814585142,1371.69775390625,1.0663105249404907,872.3887043439197,1031.8747902677844,49,0
1439.0362154375644,1372.111083984375,1.0668638944625854,872.3884477876725,1031.874916228023,50,0
1439.057049415219,1373.7330322265625,1.0673179626464844,872.3891683730063,1031.8736490903684,51,0
1439.0778833914742,1373.412841796875,1.0671361684799194,872.3882397477095,1031.8745751043596,52,0
1439.0987173667995,1374.832763671875,1.0677626132965088,872.3879159219472,1031.8747342982945,53,0
1439.1195513407274,1375.214111328125,1.0674669742584229,872.3884153026952,1031.873610523539,54,0
1439.1403853132579,1373.3651123046875,1.0673243999481201,872.3884367305693,1031.8733541443587,55,0
1439.1612192848575,1374.2762451171875,1.0672504901885986,872.3879058077534,1031.8729628614885,56,0
1439.18205325506,1373.408447265625,1.0670644044876099,872.3876009335913,1031.8734856850463,57,0
1439.2028872243313,1373.82861328125,1.0674998760223389,872.3880229019679,1031.8734007704895,58,0
1439.223721192207,1374.47119140625,1.067595362663269,872.388620739084,1031.8728369033615,59,0
1439.2445551586839,1372.3179931640625,1.0673624277114868,872.3879521325732,1031.8735411330108,60,0
1439.2653891237642,1375.5885009765625,1.067862868309021,872.3876774353768,1031.8734173033718,61,0
1439.286223088379,1375.4583740234375,1.0675885677337646,872.38788911367,1031.873323079886,62,0
1439.3070570511309,1375.1534423828125,1.0674933195114136,872.3876425655446,1031.8719444327812,63,0
1439.327891012952,1373.092529296875,1.066756010055542,872.387813485309,1031.873744007356,64,0
1439.3487249733762,1375.6270751953125,1.0677353143692017,872.3870446778666,1031.8725283932567,65,0
1439.3695589328686,1373.4195556640625,1.0671626329421997,872.387180159937,1031.8726255444712,66,0
1439.3903928909644,1374.774169921875,1.0677874088287354,872.3870780224024,1031.8728437953678,67,0
1439.4112268476629,1375.087890625,1.0677120685577393,872.3869043571434,1031.8722709596866,68,0
1439.43206080343,1375.669921875,1.0677272081375122,872.3866222338584,1031.873068734356,69,0
1439.4528947578,1376.033447265625,1.0677123069763184,872.3866609134151,1031.8729412113553,70,0
1439.473728711239,1376.173095703125,1.0680971145629883,872.3871005494248,1031.870830616812,71,0
1439.4945626632798,1375.39208984375,1.0676604509353638,872.3865777310306,1031.8725536871943,72,0
1439.515396614391,1375.634765625,1.0677498579025269,872.3878833124801,1031.8706980641928,73,0
1439.5362305641056,1375.3890380859375,1.0680087804794312,872.3872433176977,1031.872163555553,74,0
1439.5570645124226,1376.857421875,1.068697452545166,872.3864731821786,1031.872765092893,75,0
1439.577898459808,1375.649169921875,1.0678573846817017,872.3871208532761,1031.8719018866093,76,0
1439.598732405796,1375.72998046875,1.0674761533737183,872.386866780154,1031.8709581228184,77,0
1439.6195663508524,1374.404296875,1.0674070119857788,872.3870443138541,1031.8720266548362,78,0
1439.6404002945128,1376.391357421875,1.0686577558517456,872.3861782861235,1031.8722960267123,79,0
1439.6612342372414,1377.530029296875,1.0683672428131104,872.3865397573676,1031.8708588715401,80,0
1439.682068178573,1375.2159423828125,1.067525029182434,872.3867074342639,1031.872157428845,81,0
1439.7029021189735,1376.465087890625,1.0678377151489258,872.386406702482,1031.87041282451,82,0
1439.723736057978,1377.692626953125,1.0683951377868652,872.3856008116386,1031.8710761764648,83,0
1439.744569995584,1375.5501708984375,1.06747305393219,872.3867470309066,1031.8715997048234,84,0
1439.765403932724,1376.73779296875,1.068290114402771,872.386973359575,1031.8716323745132,85,0
1439.7862378680024,1377.618408203125,1.0685862302780151,872.3858436748202,1031.871832713804,86,0
1439.8070718023496,1375.757568359375,1.0686557292938232,872.3864939669248,1031.871746421494,87,0
1439.827905735765,1376.083251953125,1.0677385330200195,872.3871939733381,1031.8704783602655,88,0
1439.8487396677833,1376.66015625,1.067777395248413,872.3865878710895,1031.8712700397248,89,0
1439.8695735988704,1377.7581787109375,1.0681041479110718,872.3864862586989,1031.8709743283957,90,0
1439.8904075285614,1377.560791015625,1.0681577920913696,872.3864059925504,1031.8705172043756,91,0
1439.9112414573206,1376.30859375,1.067728877067566,872.3856948664801,1031.8707696953893,92,0
1439.9320753846825,1378.033935546875,1.068199872970581,872.3860820372024,1031.8708090298626,93,0
1439.952909311113,1375.8529052734375,1.0673667192459106,872.3859149158809,1031.8705948622778,94,0
1439.973743236146,1377.5369873046875,1.0684505701065063,872.3855181796584,1031.8721475747473,95,0
1439.9945771602484,1378.535888671875,1.0684963464736938,872.3861426329452,1031.8709821892671,96,0
1440.015411082953,1377.5081787109375,1.068271279335022,872.3858889063071,1031.8709343184091,97,0
1440.0362450047285,1378.575927734375,1.0687843561172485,872.3863511500718,1031.8711677257318,98,0
1440.0570789255717,1375.90673828125,1.0681194067001343,872.3861776209723,1031.8707539763373,99,0
1440.0779128450158,1379.4617919921875,1.0696712732315063,872.3864957779492,1031.8700022348469,100,0
1440.098746763531,1376.47119140625,1.0692030191421509,872.385658938962,1031.8713950702781,101,0
1440.1195806806481,1379.962158203125,1.069372296333313,872.3856202314977,1031.869475249123,102,0
1440.1404145968345,1377.6268310546875,1.068394422531128,872.3865480732433,1031.8693706510087,103,0
1440.161248512089,1378.3701171875,1.0686804056167603,872.3865952705762,1031.8692766787512,104,0
1440.1820824259466,1377.96044921875,1.0691426992416382,872.3852080574566,1031.870609428723,105,0
1440.2029163388734,1380.86474609375,1.0694087743759155,872.3861019834258,1031.8686690597208,106,0
1440.223750250403,1379.263916015625,1.069028377532959,872.385664549652,1031.8702766213262,107,0
1440.2445841610015,1379.705078125,1.069016456604004,872.3860420494714,1031.8694283340105,108,0
1440.2654180706681,1376.9163818359375,1.0681232213974,872.3859525307369,1031.8698231996261,109,0
1440.286251978938,1379.35107421875,1.069543719291687,872.3856612318937,1031.8700282946968,110,0
1440.3070858862766,1380.9320068359375,1.0693897008895874,872.3861166469762,1031.8698956671744,111,0
1440.3279197926836,1379.9615478515625,1.0696138143539429,872.3859470819295,1031.8695492538686,112,0
1440.348753697694,1380.3160400390625,1.0692676305770874,872.3851369337423,1031.8694508310334,113,0
1440.3695876017725,1379.1837158203125,1.068975806236267,872.3868485475612,1031.8686893120746,114,0
1440.390421504455,1377.535888671875,1.0684990882873535,872.385371297644,1031.8691482545419,115,0
1440.411255406671,1380.43994140625,1.0695984363555908,872.3852810135752,1031.869785732742,116,0
1440.4320893074905,1378.366943359375,1.0686947107315063,872.3859505581238,1031.869625288113,117,0
1440.452923206913,1380.057861328125,1.0693963766098022,872.3852985984439,1031.869910887543,118,0
1440.4737571054034,1379.73486328125,1.069106101989746,872.3858923236462,1031.8691760939867,119,0
1440.4945910029628,1380.0465087890625,1.069128155708313,872.385758333163,1031.8700433715355,120,0
1440.515424899591,1379.595703125,1.0692753791809082,872.3860019463533,1031.868699547181,121,0
1440.536258794823,1379.810791015625,1.0688945055007935,872.3859406254396,1031.869588845313,122,0
1440.5570926891237,1378.7576904296875,1.0689027309417725,872.3853783091716,1031.868835395067,123,0
1440.577926582492,1378.710205078125,1.0687285661697388,872.3858483908034,1031.8684855070578,124,0
1440.5987604744641,1379.7381591796875,1.070127010345459,872.3850016898446,1031.8691028518117,125,0
1440.6195943655046,1382.0750732421875,1.0696165561676025,872.3851127817192,1031.8699544067417,126,0
1440.6404282556132,1380.80029296875,1.0694634914398193,872.385395655631,1031.8680893657402,127,0
1440.661262144791,1379.6591796875,1.0690927505493164,872.3853401953502,1031.8680014422896,128,0
1440.6820960325715,1380.2532958984375,1.0696003437042236,872.3855282463528,1031.868207591557,129,0
1440.702929919421,1382.8721923828125,1.0699907541275024,872.3852262645089,1031.868462168697,130,0
1440.7237638053396,1380.7904052734375,1.0697180032730103,872.3851713443078,1031.8681267562426,131,0
1440.7445976898612,1380.0118408203125,1.0697184801101685,872.3850259888119,1031.8696150979158,132,0
1440.7654315734505,1379.667724609375,1.069140076637268,872.3854108363317,1031.8692534058298,133,0
1440.786265456109,1382.403564453125,1.070285439491272,872.3857063352951,1031.8682074059684,134,0
1440.8070993378365,1382.4849853515625,1.070547103881836,872.3850766715846,1031.8688793435097,135,0
1440.827933218632,1380.5384521484375,1.0708749294281006,872.3859155716972,1031.8694163450823,136,0
1440.8487670980305,1382.21630859375,1.0698834657669067,872.3856481069345,1031.8678287187024,137,0
1440.869600976498,1381.695556640625,1.0698307752609253,872.3850842179197,1031.8674072233487,138,0
1440.890434854035,1381.815673828125,1.0697518587112427,872.3851039688391,1031.8683938850163,139,0
1440.911268730175,1381.79296875,1.0697922706604004,872.3859218723055,1031.8687613232319,140,0
1440.9321026058485,1380.3765869140625,1.0705993175506592,872.3857136003616,1031.8685216808033,141,0
1440.9529364801251,1380.2579345703125,1.0691423416137695,872.3856736509086,1031.8689346040305,142,0
1440.9737703534688,1381.64990234375,1.0698399543762207,872.3854737598949,1031.867940933479,143,0
1440.9946042254176,1381.860595703125,1.0697863101959229,872.3854796495681,1031.8676987389447,144,0
1441.0154380969002,1382.8680419921875,1.0701444149017334,872.385268302253,1031.8673455802225,145,0
1441.0571058361406,1379.3668212890625,1.0692198276519775,872.3850565515785,1031.869463915337,146,0
1441.0779397043646,1378.82373046875,1.0688250064849854,872.3846940556995,1031.868135046414,147,0
1441.1404413025139,1379.6885986328125,1.0694115161895752,872.3849409227714,1031.8666078731535,148,0
1441.1821090296467,1379.829345703125,1.0690990686416626,872.3854393862749,1031.868261150777,149,0
1441.2029428918154,1378.5782470703125,1.0686638355255127,872.3846789799414,1031.8683543194986,150,0
1441.2237767530546,1380.68212890625,1.0694184303283691,872.3854376131908,1031.8677332433406,151,0
1441.2446106128964,1381.8365478515625,1.0697304010391235,872.3851746531914,1031.8661573691884,152,0
1441.2862783297846,1380.299560546875,1.0694056749343872,872.3849070950263,1031.8673677951474,153,0
1441.307112186831,1377.3896484375,1.069324016571045,872.384810863595,1031.8675102644766,154,0
1441.3279460429476,1378.9151611328125,1.0686801671981812,872.3847295206042,1031.8677601499212,155,0
1441.3487798981319,1381.305419921875,1.0698094367980957,872.3854992274419,1031.8668332603665,156,0
1441.369613751919,1378.107421875,1.06846022605896,872.3850314067391,1031.867089233529,157,0
1441.3904476047755,1379.8765869140625,1.0691570043563843,872.3850713697487,1031.8675121632273,158,0
1441.411281457167,1381.6556396484375,1.0694726705551147,872.3856252710711,1031.8672676085916,159,0
1441.43211530816,1381.08935546875,1.0699989795684814,872.384268114734,1031.8686834026228,160,0
1441.4529491582225,1378.53662109375,1.0685572624206543,872.3851922903908,1031.8665124202912,161,0
1441.473783006888,1380.035888671875,1.069088101387024,872.3852036075439,1031.8680000135334,162,0
1441.4946168550875,1379.25537109375,1.0690844058990479,872.384597926251,1031.8655425193338,163,0
1441.5154507018901,1379.201171875,1.0688433647155762,872.3850083387795,1031.8670729706712,164,0
1441.5362845482264,1381.81201171875,1.0707038640975952,872.3856479206707,1031.8668763721528,165,0
1441.557118393167,1379.2489013671875,1.0689324140548706,872.3851858430718,1031.8679655515843,166,0
1441.5779522371765,1378.442626953125,1.0688408613204956,872.3844098232568,1031.8660689916812,167,0
1441.5987860802538,1380.1676025390625,1.0698418617248535,872.3852757344048,1031.8664374315704,168,0
1441.6196199223996,1381.261474609375,1.0696173906326294,872.3840981396506,1031.8661341455202,169,0
1441.640453763614,1379.381103515625,1.068943977355957,872.3850429517455,1031.8673057215601,170,0
1441.6612876034314,1380.8331298828125,1.0694653987884521,872.3854713248174,1031.8663949257345,171,0
1441.6821214427841,1380.350830078125,1.069238543510437,872.3847142940903,1031.867754138414,172,0
1441.7029552807385,1379.57861328125,1.0691263675689697,872.3855006008932,1031.86584918579,173,0
1441.7237891182285,1380.5330810546875,1.0694547891616821,872.3845355475175,1031.86580363049,174,0
1441.7446229543216,1380.340087890625,1.0701935291290283,872.3853459942414,1031.8660078343642,175,0
1441.7654567894824,1379.92822265625,1.069261908531189,872.3853849753883,1031.8679312636739,176,0
1441.786290623712,1379.8525390625,1.0695406198501587,872.3850733698864,1031.8662737160194,177,0
1441.8071244570106,1380.5123291015625,1.0692036151885986,872.3846873820922,1031.8687143524492,178,0
1441.8279582893774,1380.29345703125,1.0705034732818604,872.3850274033807,1031.8660721787146,179,0
1441.848792120813,1381.997802734375,1.0710654258728027,872.3850784572408,1031.8662598687645,180,0
1441.8696259513176,1380.5146484375,1.069752812385559,872.3845844073874,1031.8673023127415,181,0
1441.8904597804255,1380.0655517578125,1.0692721605300903,872.3851157428107,1031.86726424986,182,0
1441.911293609068,1383.041748046875,1.0704190731048584,872.3850448566171,1031.8662462649643,183,0
1441.9321274363128,1380.920166015625,1.0694504976272583,872.3846065983835,1031.8651628159405,184,0
1441.952961263092,1379.8670654296875,1.0690866708755493,872.3848591004798,1031.866259664499,185,0
1441.9737950884746,1381.64111328125,1.06981360912323,872.3853019493738,1031.8657637154497,186,0
1441.994628912925,1378.912353515625,1.0694514513015747,872.3843925752807,1031.8675508916833,187,0
1442.015462736445,1378.9127197265625,1.0688053369522095,872.385220096347,1031.866437451648,188,0
1442.036296559033,1381.35986328125,1.0701892375946045,872.3851879401914,1031.8652435026202,189,0
1442.0571303806905,1380.8575439453125,1.0695394277572632,872.3857845572638,1031.8663161019042,190,0
1442.077964201417,1380.270263671875,1.070475459098816,872.3849801572877,1031.8670232279082,191,0
1442.0987980212105,1380.113037109375,1.0690709352493286,872.3846040460694,1031.8660578326192,192,0
1442.119631840074,1381.8758544921875,1.0699732303619385,872.3850556392938,1031.8657247710248,193,0
1442.1404656580055,1379.8985595703125,1.0693638324737549,872.3854046273711,1031.8661295354998,194,0
1442.1612994750049,1380.676513671875,1.0693144798278809,872.3853334604423,1031.866491690643,195,0
1442.1821332906084,1379.21728515625,1.0688847303390503,872.3855939165811,1031.8659509168788,196,0
1442.2029671057462,1379.5872802734375,1.0695090293884277,872.3848617635642,1031.8664990418595,197,0
1442.223800919953,1380.7813720703125,1.0693892240524292,872.3849443161614,1031.8655549495768,198,0
1442.2446347327636,1377.8326416015625,1.0689654350280762,872.3849340802262,1031.8661626372516,199,0
