time,flux,flux_err,centroid_col,centroid_row,cadenceno,quality
1437.993981163071,5116.4501953125,1.9844529628753662,937.4100433960427,1934.165888131305,0,0
1438.01481464689,4726.66650390625,1.9096344709396362,937.4105180071967,1934.1624856033643,1,0
1438.0356481309425,4402.64697265625,1.846821904182434,937.4109321690465,1934.159857750481,2,0
1438.0564816156939,4104.673828125,1.7841575145721436,937.411463797938,1934.156363886823,3,0
1438.0773151004441,3839.884765625,1.7276264429092407,937.4116299177374,1934.1542842116132,4,0
1438.098148585661,3609.555419921875,1.6772204637527466,937.4123160882313,1934.1504821289034,5,0
1438.1189820708773,3422.933349609375,1.6358271837234497,937.4122007337913,1934.1488430197994,6,0
1438.1398155560928,3275.583984375,1.6012567281723022,937.4125696832,1934.1460497319329,7,0
1438.1606490413092,3144.8662109375,1.5721032619476318,937.4127597685247,1934.1441003819314,8,0
1438.1814825265255,3029.879150390625,1.542781949043274,937.4131916938918,1934.1426323498424,9,0
1438.20231601151,2919.67041015625,1.5160030126571655,937.4135149285431,1934.140640529661,10,0
1438.2231494962612,2815.104248046875,1.490058183670044,937.4131902126737,1934.1381462364666,11,0
1438.243982980546,2725.968505859375,1.4673808813095093,937.4130335141064,1934.1364019959756,12,0
1438.264816464598,2647.3310546875,1.448033094406128,937.4129789473257,1934.1341878700614,13,0
1438.285649948184,2603.2412109375,1.4357444047927856,937.4128524518151,1934.1323061315727,14,0
1438.306483431305,2584.3291015625,1.4308446645736694,937.4128418667124,1934.1320292965452,15,0
1438.32731691396,2546.57421875,1.421181559562683,937.412847740454,1934.131866548561,16,0
1438.348150395917,2517.48828125,1.4130582809448242,937.4124256470751,1934.1303679669716,17,0
1438.3689838771757,2487.5556640625,1.405430793762207,937.4118260716332,1934.1296191844797,18,0
1438.389817357969,2467.7578125,1.4000436067581177,937.411751407508,1934.129419720307,19,0
1438.4106508380628,2452.37744140625,1.3979496955871582,937.4114324423904,1934.1288445608127,20,0
1438.431484317458,2447.998291015625,1.3947038650512695,937.4113599868994,1934.1283855087877,21,0
1438.4523177961555,2444.665283203125,1.393723726272583,937.4109294377935,1934.1282536192437,22,0
1438.4731512739208,2443.181884765625,1.393792748451233,937.4106157966311,1934.1287178959742,23,0
1438.4939847509881,2442.170654296875,1.3933079242706299,937.4108092131354,1934.1292095694837,24,0
1438.5148182271241,2443.578857421875,1.3938804864883423,937.4102610711727,1934.1289506717972,25,0
1438.535651702562,2445.908447265625,1.394757866859436,937.4091157870771,1934.1286577672115,26,0
1438.5564851770691,2444.15478515625,1.3936246633529663,937.4094248195381,1934.1289035803493,27,0
1438.577318650643,2444.488525390625,1.3934999704360962,937.4092952147913,1934.128687956455,28,0
1438.598152123287,2446.627685546875,1.3959085941314697,937.40879736757,1934.1283282443837,29,0
1438.618985595232,2440.42529296875,1.3925774097442627,937.408429031785,1934.1284933036095,30,0
1438.639819066012,2444.344970703125,1.3938008546829224,937.4084538316229,1934.1278640026,31,0
1438.6606525358625,2445.9375,1.393769383430481,937.408713976859,1934.128598982788,32,0
1438.6814860047805,2442.701416015625,1.393035888671875,937.4084766281487,1934.128895283552,33,0
1438.7023194727676,2444.2373046875,1.3936872482299805,937.4083326599475,1934.1280093978023,34,0
1438.723152939824,2442.451904296875,1.3931145668029785,937.4077075913386,1934.12796014467,35,0
1438.7439864059484,2446.36279296875,1.3941936492919922,937.4074749693173,1934.12805800414,36,0
1438.764819870908,2441.34033203125,1.393983006477356,937.406580077662,1934.1281932362174,37,0
1438.785653334937,2444.006591796875,1.3933907747268677,937.4070859502544,1934.128309974546,38,0
1438.8064867978019,2442.621337890625,1.3931362628936768,937.4069062702494,1934.1279462461532,39,0
1438.827320259967,2443.869873046875,1.3939788341522217,937.4067640843625,1934.128184374148,40,0
1438.8481537209695,2442.99462890625,1.3932138681411743,937.4064264039815,1934.127995113879,41,0
1438.8689871808085,2443.938720703125,1.3933244943618774,937.4066957844627,1934.1283017001465,42,0
1438.8898206397148,2439.881103515625,1.3945063352584839,937.4058701095574,1934.1279227383347,43,0
1438.91065409769,2440.95068359375,1.3926829099655151,937.4057415238683,1934.1281991969702,44,0
1438.931487554501,2442.799072265625,1.3933824300765991,937.4062171156355,1934.1278868030788,45,0
1438.952321010148,2443.480224609375,1.393389105796814,937.4054326349766,1934.1280770610367,46,0
1438.9731544650965,2443.90869140625,1.3929846286773682,937.4061732723958,1934.1273918108939,47,0
1438.9939879186481,2446.10009765625,1.393784523010254,937.4056155385656,1934.128050372853,48,0
1439.0148213712669,2441.627685546875,1.3932194709777832,937.4055226190984,1934.1277782105162,49,0
1439.035654822957,2443.7001953125,1.3934789896011353,937.4061024386486,1934.12749272034,50,0
1439.056488273482,2443.607177734375,1.3929511308670044,937.4051672167541,1934.1276925851346,51,0
1439.0773217230749,2442.36669921875,1.3927186727523804,937.4060704393892,1934.1277000752905,52,0
1439.0981551715045,2446.027587890625,1.3938140869140625,937.405296214795,1934.1276198908088,53,0
1439.1189886190018,2442.41796875,1.3928940296173096,937.4047529828639,1934.1284670507541,54,0
1439.139822065335,2445.98291015625,1.3935397863388062,937.4047595377705,1934.1279592650617,55,0
1439.160655510738,2441.606689453125,1.3927979469299316,937.4052495540116,1934.1282918672377,56,0
1439.181488954976,2439.40380859375,1.3920701742172241,937.4051249710012,1934.1284999331451,57,0
1439.2023223982835,2440.98193359375,1.3923726081848145,937.4045627380038,1934.12648498309,58,0
1439.223155840427,2443.421875,1.3930332660675049,937.4047627903403,1934.128287673197,59,0
1439.2439892816378,2442.8681640625,1.3929439783096313,937.4047272743081,1934.1273097918966,60,0
1439.264822721685,2439.2646484375,1.3920785188674927,937.4045767447204,1934.1275387645042,61,0
1439.285656160801,2442.62255859375,1.3929728269577026,937.4041114591711,1934.127213759605,62,0
1439.3064895987532,2445.6201171875,1.395821213722229,937.4040042636409,1934.1274611395731,63,0
1439.3273230357736,2441.8525390625,1.393376111984253,937.4034818310213,1934.1272989922443,64,0
1439.3481564716299,2444.56982421875,1.3934836387634277,937.4038015414626,1934.1271259951354,65,0
1439.3689899065555,2441.706787109375,1.3930352926254272,937.4038433243868,1934.12742965091,66,0
1439.3898233403165,2442.806640625,1.3929250240325928,937.4043804973468,1934.126724260964,67,0
1439.4106567733788,2442.55859375,1.3927258253097534,937.4038811056181,1934.1271052438249,68,0
1439.4314902050442,2444.51171875,1.3935550451278687,937.4036335531205,1934.128059670599,69,0
1439.452323635778,2442.56298828125,1.3926516771316528,937.4040211622734,1934.1270407206066,70,0
1439.4731570655808,2443.5830078125,1.3932634592056274,937.4044638924935,1934.128488364774,71,0
1439.493990494219,2442.68896484375,1.3929975032806396,937.403421379907,1934.1269672164244,72,0
1439.5148239219266,2441.86279296875,1.3927415609359741,937.4037259282514,1934.1279168170552,73,0
1439.535657348703,2445.733154296875,1.3937088251113892,937.4032983218841,1934.1266526335376,74,0
1439.5564907743155,2443.45556640625,1.3928135633468628,937.403212106258,1934.127417907908,75,0
1439.577324198996,2442.833251953125,1.3931033611297607,937.403363259175,1934.1273253283455,76,0
1439.598157622745,2444.00732421875,1.3934671878814697,937.4034267641255,1934.1273035333156,77,0
1439.6189910453295,2445.96240234375,1.3936396837234497,937.4032247270144,1934.1272410178126,78,0
1439.6398244669836,2445.590576171875,1.3950461149215698,937.402986583794,1934.1270172301693,79,0
1439.6606578874735,2443.337646484375,1.3930705785751343,937.4030771007057,1934.1277640633496,80,0
1439.681491307264,2444.681640625,1.393477201461792,937.4031099252243,1934.1270103029776,81,0
1439.7023247256584,2441.420654296875,1.3924338817596436,937.4033573326917,1934.1279857823838,82,0
1439.7231581433543,2444.2763671875,1.3934322595596313,937.4036357982556,1934.1279665874797,83,0
1439.7439915598861,2444.301025390625,1.3932784795761108,937.4025510701961,1934.1270369223212,84,0
1439.764824975718,2442.33837890625,1.3931525945663452,937.4030510151224,1934.1276309330099,85,0
1439.7856583901544,2442.9150390625,1.3930234909057617,937.4028506507979,1934.1269886210323,86,0
1439.8064918038922,2444.424072265625,1.3934507369995117,937.4020003748367,1934.126767090699,87,0
1439.8273252164654,2444.83154296875,1.393598198890686,937.4026869302369,1934.1265180951125,88,0
1439.8481586281068,2442.59326171875,1.3927534818649292,937.4026378249895,1934.1264176107577,89,0
1439.8689920388185,2444.996337890625,1.393282175064087,937.4025190207799,1934.1272367733247,90,0
1439.8898254485985,2441.56884765625,1.3929764032363892,937.4018925589555,1934.1275720662004,91,0
1439.910658857446,2444.1943359375,1.3934580087661743,937.4023241832826,1934.126835004425,92,0
1439.9314922651306,2445.79296875,1.3940637111663818,937.4028869427412,1934.1276643252404,93,0
1439.952325671883,2443.560791015625,1.3928990364074707,937.4025544332127,1934.127481085442,94,0
1439.9731590777028,2442.696044921875,1.3930673599243164,937.4024990472533,1934.1272555458952,95,0
1439.9939924825935,2444.815185546875,1.3940660953521729,937.4019371376746,1934.1266351917818,96,0
1440.0148258863192,2444.389892578125,1.3933582305908203,937.4018016457088,1934.1270453878315,97,0
1440.0356592893474,2443.811279296875,1.3932373523712158,937.4014306007152,1934.126962341897,98,0
1440.0564926912111,2441.60302734375,1.3924816846847534,937.4023495331277,1934.1263850508649,99,0
1440.0773260923752,2444.46875,1.395647406578064,937.401487861127,1934.1268660592152,100,0
1440.0981594923755,2443.389404296875,1.3935657739639282,937.4015778233342,1934.1263639046003,101,0
1440.1189928914446,2443.878173828125,1.3930747509002686,937.4023976848441,1934.128407837065,102,0
1440.1398262895825,2443.88134765625,1.3937008380889893,937.40158705854,1934.127870951929,103,0
1440.1606596867891,2442.85107421875,1.3931679725646973,937.4012877304211,1934.1265566537722,104,0
1440.1814930830647,2441.4794921875,1.3934872150421143,937.4016982490525,1934.1274273021809,105,0
1440.2023264784084,2442.53173828125,1.3949005603790283,937.4015460747595,1934.1268436125945,106,0
1440.223159872589,2443.146240234375,1.3936700820922852,937.4014693477958,1934.1271839684857,107,0
1440.2439932660695,2442.653076171875,1.3926817178726196,937.4019359563072,1934.1268645227883,108,0
1440.26482665862,2443.420654296875,1.3932647705078125,937.4010544150021,1934.1267827540496,109,0
1440.2856600500054,2436.9345703125,1.3932148218154907,937.4009942861345,1934.1269900449663,110,0
1440.306493440693,2429.43408203125,1.3906079530715942,937.4013390363665,1934.1270997969843,111,0
1440.3273268304486,2424.988525390625,1.3904706239700317,937.4005540306902,1934.127003070045,112,0
1440.348160219041,2426.4228515625,1.3884376287460327,937.4015384593326,1934.1264864350492,113,0
1440.3689936069336,2425.603515625,1.3886585235595703,937.401522990513,1934.1279136846983,114,0
1440.3898269938963,2428.489990234375,1.3887830972671509,937.4019676222052,1934.1278739923566,115,0
1440.4106603799269,2427.873291015625,1.388590931892395,937.4012210835884,1934.1274032087263,116,0
1440.4314937647935,2425.685546875,1.3881653547286987,937.4011916532938,1934.1267715070885,117,0
1440.452327148962,2430.94384765625,1.3895868062973022,937.4004748449004,1934.1265403635741,118,0
1440.4731605321986,2443.496337890625,1.3932931423187256,937.4013352793673,1934.1271788222102,119,0
1440.4939939145038,2440.13671875,1.3931549787521362,937.4008402119102,1934.1268803027574,120,0
1440.514827295877,2442.41943359375,1.3927634954452515,937.4007849617409,1934.1274992003318,121,0
1440.5356606763205,2441.8095703125,1.392723798751831,937.4005152098873,1934.1272851849874,122,0
1440.5564940560655,2441.269287109375,1.3926591873168945,937.4017057981953,1934.1279749293935,123,0
1440.5773274346454,2443.075927734375,1.3926395177841187,937.4007333009954,1934.1274359715392,124,0
1440.598160812527,2442.43505859375,1.3927565813064575,937.4006237521509,1934.1273315799722,125,0
1440.6189941892444,2442.98681640625,1.3928319215774536,937.4004411294128,1934.126779772775,126,0
1440.639827565264,2440.7861328125,1.3922146558761597,937.4005787595049,1934.1270082726012,127,0
1440.6606609403516,2443.570556640625,1.393000841140747,937.4003468300351,1934.127342023796,128,0
1440.6814943145075,2443.5634765625,1.3931175470352173,937.4008134662213,1934.1270076010837,129,0
1440.7023276877326,2447.4482421875,1.3939621448516846,937.4003471957599,1934.1263236991094,130,0
1440.723161060027,2443.08935546875,1.3929836750030518,937.4014106674858,1934.1280717323477,131,0
1440.743994431622,2444.4951171875,1.3932846784591675,937.4006613582495,1934.1271762965496,132,0
1440.764827802053,2442.28662109375,1.3931026458740234,937.4002462212127,1934.1269636918928,133,0
1440.7856611717862,2444.26416015625,1.3931021690368652,937.3998467144361,1934.1267317977577,134,0
1440.8064945405865,2444.361572265625,1.3931989669799805,937.399802376723,1934.1260553974414,135,0
1440.827327908457,2440.9208984375,1.3924140930175781,937.4004358941557,1934.1267003630321,136,0
1440.848161275628,2441.533203125,1.3924949169158936,937.4001761033426,1934.1272173971954,137,0
1440.8689946416348,2445.318603515625,1.3937228918075562,937.400343162582,1934.1275527841633,138,0
1440.8898280069445,2442.58984375,1.3927351236343384,937.4004808468854,1934.1272924386258,139,0
1440.910661371323,2444.864990234375,1.3933285474777222,937.3997440825582,1934.1267791295072,140,0
1440.9314947350015,2441.492919921875,1.3931264877319336,937.4002927271082,1934.1275801334052,141,0
1440.9523280975163,2441.677490234375,1.3922436237335205,937.3998276916435,1934.1266707018851,142,0
1440.973161459332,2443.5439453125,1.3930621147155762,937.3998372150345,1934.127497800426,143,0
1440.9939948202175,2444.153076171875,1.3932592868804932,937.400310360813,1934.1282449615937,144,0
1441.0148281801712,2443.785888671875,1.3930083513259888,937.4002401359395,1934.127786633868,145,0
1441.0564948977506,2438.0966796875,1.3915868997573853,937.3990052164714,1934.1268409831368,146,0
1441.0773282551436,2440.26806640625,1.3922008275985718,937.3987819871625,1934.1270860225036,147,0
1441.1398283221988,2438.3984375,1.3917349576950073,937.3993824641959,1934.1289636206807,148,0
1441.1814950293005,2438.810791015625,1.3919788599014282,937.3987913926295,1934.12753354341,149,0
1441.2023283815706,2439.1337890625,1.3921763896942139,937.3987442261257,1934.1276333511232,150,0
1441.2231617329105,2440.5625,1.3919777870178223,937.3982547868543,1934.1272249814535,151,0
1441.2439950835515,2441.83349609375,1.392804741859436,937.3996632839253,1934.1285600644887,152,0
1441.2856617820385,2437.381103515625,1.3917546272277832,937.3981722791366,1934.128007871578,153,0
1441.3064951298852,2437.9375,1.3914345502853394,937.39847842064,1934.1275646688816,154,0
1441.3273284770326,2438.9853515625,1.393730878829956,937.3985238262261,1934.1282444046517,155,0
1441.3481618234819,2442.715576171875,1.3927496671676636,937.3983288262505,1934.1274377426387,156,0
1441.3689951687675,2440.697998046875,1.3926126956939697,937.3984533663215,1934.128264146929,157,0
1441.3898285133546,2440.947265625,1.3931283950805664,937.3988187529255,1934.127680516437,158,0
1441.4106618572434,2439.289794921875,1.3924672603607178,937.3982304384671,1934.128387323971,159,0
1441.4314951999681,2439.89404296875,1.3926180601119995,937.3981803579137,1934.1267985139996,160,0
1441.4523285422265,2437.012451171875,1.3911885023117065,937.3982493543631,1934.129120165061,161,0
1441.4731618833212,2438.1328125,1.391899585723877,937.3977184859459,1934.1273654090405,162,0
1441.4939952237164,2440.870849609375,1.392371654510498,937.3991028857629,1934.1295889063472,163,0
1441.5148285631808,2438.23583984375,1.3916518688201904,937.3983016970839,1934.1281086744245,164,0
1441.5356619019476,2442.13671875,1.39267098903656,937.3987975047866,1934.1274580270583,165,0
1441.5564952397826,2439.077880859375,1.3916411399841309,937.3980804743484,1934.126152949568,166,0
1441.5773285769196,2439.619384765625,1.3925467729568481,937.3978444948858,1934.127632814457,167,0
1441.5981619131248,2440.388427734375,1.3928771018981934,937.3981399095283,1934.1267197294553,168,0
1441.6189952483985,2438.54931640625,1.3918492794036865,937.3992524176791,1934.1294935458473,169,0
1441.639828582973,2440.190673828125,1.392202615737915,937.3981314921699,1934.1272644274584,170,0
1441.660661916617,2442.4755859375,1.3931587934494019,937.3979715509607,1934.1283570920937,171,0
1441.681495249562,2440.05615234375,1.3917760848999023,937.3977257923632,1934.1267034795242,172,0
1441.7023285815765,2441.010986328125,1.3923786878585815,937.3976814846324,1934.1277009497837,173,0
1441.7231619128925,2442.005126953125,1.3925459384918213,937.3990215575119,1934.1284075391306,174,0
1441.7439952432774,2439.210205078125,1.3922911882400513,937.397877052909,1934.1283534789543,175,0
1441.7648285729629,2440.73779296875,1.3947657346725464,937.39716749446,1934.126425777878,176,0
1441.7856619017175,2442.569580078125,1.392773151397705,937.3974341226406,1934.1272850611683,177,0
1441.80649522954,2442.09326171875,1.3925646543502808,937.398063759858,1934.1269220341396,178,0
1441.8273285566645,2439.842041015625,1.3929108381271362,937.3987327180524,1934.1286452480103,179,0
1441.848161882858,2444.13037109375,1.394470453262329,937.3984076692227,1934.1283008044625,180,0
1441.8689952083525,2442.12060546875,1.3924659490585327,937.3980030443092,1934.1277188919523,181,0
1441.8898285331495,2439.74462890625,1.3920507431030273,937.3970539724336,1934.1269718670528,182,0
1441.9106618567826,2443.01904296875,1.3931092023849487,937.3970505584011,1934.1280764676856,183,0
1441.9314951799488,2442.2939453125,1.395473599433899,937.3979697731904,1934.127526443885,184,0
1441.952328502184,2443.6875,1.3930288553237915,937.3970893222373,1934.1275970608065,185,0
1441.9731618234885,2443.3017578125,1.3928202390670776,937.3972522233738,1934.1270693308716,186,0
1441.9939951440933,2440.83203125,1.3920581340789795,937.3976309603019,1934.127209132088,187,0
1442.0148284637676,2440.3369140625,1.3921067714691162,937.3970886873451,1934.1268929416085,188,0
1442.0356617827429,2438.290283203125,1.3916219472885132,937.3981263286332,1934.128977564065,189,0
1442.0564951007875,2439.9794921875,1.391852855682373,937.3973395677434,1934.1272147317893,190,0
1442.0773284181341,2441.214599609375,1.3923048973083496,937.3970665822267,1934.1272945926255,191,0
1442.0981617347816,2441.423095703125,1.3928194046020508,937.3976696435794,1934.126965661437,192,0
1442.118995050497,2440.130615234375,1.3921200037002563,937.3977405194214,1934.1278004507355,193,0
1442.1398283652816,2441.764892578125,1.3925487995147705,937.3988280996522,1934.1286185059414,194,0
1442.1606616793674,2440.110595703125,1.39240300655365,937.3972746086348,1934.1266838936424,195,0
1442.181494992755,2440.56494140625,1.3925843238830566,937.3970902998174,1934.1271127155417,196,0
1442.2023283052108,2440.66357421875,1.392362356185913,937.3971447864441,1934.1271855148336,197,0
1442.2231616167364,2440.221923828125,1.3923704624176025,937.3973274435428,1934.1282706240797,198,0
1442.2439949277975,2442.185546875,1.3928061723709106,937.3975796800661,1934.1280853026715,199,0
1442.2648282376922,2442.553466796875,1.3929051160812378,937.3963375110036,1934.1268306272882,200,0
1442.2856615471214,2441.999267578125,1.3936432600021362,937.3969619029538,1934.1276942705617,201,0
