time,flux,flux_err,centroid_col,centroid_row,cadenceno,quality
1491.662063322502,2688.142578125,1.451770305633545,1370.6471084266552,1559.574769890593,0,0
1491.682897404786,2660.2353515625,1.4447417259216309,1370.6490483854923,1559.574791702688,1,0
1491.7037314866038,2640.7392578125,1.4398667812347412,1370.6501372721668,1559.5748703042434,2,0
1491.724565567956,2613.846923828125,1.4326368570327759,1370.6522136183712,1559.5764340926016,3,0
1491.745399648843,2588.127685546875,1.4262949228286743,1370.6528646055158,1559.5766099987445,4,0
1491.7662337292636,2566.693359375,1.4205673933029175,1370.6545693470746,1559.5776623186941,5,0
1491.787067809219,2545.35400390625,1.414421796798706,1370.6558283225124,1559.577771437985,6,0
1491.807901888709,2529.225341796875,1.4103949069976807,1370.6570696690553,1559.579010318535,7,0
1491.828735967267,2508.450439453125,1.4045549631118774,1370.6587433025459,1559.5791749042032,8,0
1491.84957004536,2491.345703125,1.4001661539077759,1370.6601288327013,1559.5800807815963,9,0
1491.870404122521,2474.90576171875,1.3959770202636719,1370.6612350543255,1559.5806372687803,10,0
1491.891238199217,2460.137939453125,1.3917155265808105,1370.6627545655954,1559.5809534099621,11,0
1491.912072274981,2447.9638671875,1.388756513595581,1370.662970635872,1559.581022934897,12,0
1491.932906349814,2437.6787109375,1.3855048418045044,1370.6641268388576,1559.5820716069295,13,0
1491.9537404241814,2430.625244140625,1.383864164352417,1370.6647654376964,1559.5824863138132,14,0
1491.974574497152,2424.8037109375,1.3821349143981934,1370.665324472543,1559.5828452181213,15,0
1491.9954085696577,2420.89697265625,1.3808974027633667,1370.6655289424339,1559.5826274577214,16,0
1492.016242641697,2421.114013671875,1.381110429763794,1370.6654037362346,1559.5824342184937,17,0
1492.037076712339,2419.087890625,1.380693793296814,1370.6651248049166,1559.5816858897294,18,0
1492.05791078205,2418.6474609375,1.3805813789367676,1370.6655723151216,1559.5823676058214,19,0
1492.0787448512951,2419.377197265625,1.3806443214416504,1370.6656904666497,1559.5829631977294,20,0
1492.099578919143,2416.478515625,1.3799104690551758,1370.6654924945665,1559.5831244084602,21,0
1492.120412986526,2417.027587890625,1.3807419538497925,1370.6656306296525,1559.58234567524,22,0
1492.141247052511,2418.12646484375,1.3806957006454468,1370.6659100688707,1559.5817527703666,23,0
1492.162081118031,2421.307861328125,1.3813681602478027,1370.6654485218667,1559.582977924165,24,0
1492.182915182154,2419.39501953125,1.38092839717865,1370.6655408330425,1559.5822585642636,25,0
1492.2037492453455,2418.534912109375,1.3805838823318481,1370.6654358445353,1559.5823740382275,26,0
1492.2245833076054,2419.79443359375,1.381037712097168,1370.665307484918,1559.582066607523,27,0
1492.2454173689346,2417.646240234375,1.3802504539489746,1370.6657640068915,1559.582980348045,28,0
1492.266251429332,2414.297607421875,1.379419207572937,1370.6656078347144,1559.5819912183917,29,0
1492.2870854887979,2402.927734375,1.377454400062561,1370.6657632108129,1559.5819920731667,30,0
1492.3079195468674,2402.8076171875,1.3762882947921753,1370.6656057773398,1559.5826112971072,31,0
1492.3287536040054,2402.068359375,1.3761584758758545,1370.665300427732,1559.5821239721383,32,0
1492.349587660212,2400.118896484375,1.375575065612793,1370.6657454713902,1559.5816317235667,33,0
1492.3704217154868,2401.226806640625,1.3756787776947021,1370.665153132681,1559.5819479712366,34,0
1492.3912557698309,2401.46728515625,1.3763344287872314,1370.6647390409712,1559.581584605054,35,0
1492.412089822778,2410.438232421875,1.3789100646972656,1370.665441897752,1559.5815420450706,36,0
1492.432923874795,2419.388427734375,1.3808579444885254,1370.6653561897976,1559.5819676124127,37,0
1492.4537579258795,2418.208251953125,1.3809863328933716,1370.6653211146997,1559.581651645773,38,0
1492.4745919760326,2419.246337890625,1.3808526992797852,1370.6652417750192,1559.5823347906946,39,0
1492.4954260247885,2420.4951171875,1.381019115447998,1370.6651904643654,1559.58214181104,40,0
1492.5162600726135,2416.72802734375,1.3801794052124023,1370.6655706209508,1559.5806987693,41,0
1492.537094119507,2418.821533203125,1.3809077739715576,1370.6652244165098,1559.5816479128473,42,0
1492.5579281654695,2417.197021484375,1.3802486658096313,1370.6653919935472,1559.581744524378,43,0
1492.5787622100345,2420.448486328125,1.3810405731201172,1370.665362395411,1559.5813805071878,44,0
1492.599596253668,2417.02880859375,1.3808846473693848,1370.6647937910031,1559.5819312459912,45,0
1492.6204302963706,2417.2021484375,1.3802857398986816,1370.6648859038507,1559.5810285040895,46,0
1492.6412643376761,2417.67138671875,1.3804103136062622,1370.6648266870866,1559.5809157340836,47,0
1492.66209837805,2415.112548828125,1.3800065517425537,1370.6653581659111,1559.5796263427487,48,0
1492.682932417493,2419.95751953125,1.3809477090835571,1370.665245825677,1559.581836844413,49,0
1492.703766455539,2416.3486328125,1.3806716203689575,1370.6656938908177,1559.581134115609,50,0
1492.7246004926528,2418.864990234375,1.3808095455169678,1370.6647812841181,1559.5812214343814,51,0
1492.7454345288365,2419.556884765625,1.381003975868225,1370.6646964004358,1559.5812688783267,52,0
1492.766268564088,2419.58349609375,1.380863904953003,1370.66442402055,1559.5805006001647,53,0
1492.787102597943,2415.9375,1.3799011707305908,1370.6647037394096,1559.580797997207,54,0
1492.807936630867,2419.404296875,1.3808505535125732,1370.6639886910841,1559.5814779921654,55,0
1492.8287706623935,2420.704833984375,1.3816653490066528,1370.6647984505014,1559.5798310236992,56,0
1492.849604693454,2420.388671875,1.3810025453567505,1370.665159928795,1559.5809811757458,57,0
1492.8704387226526,2417.77392578125,1.3803173303604126,1370.6649311253068,1559.5805977576747,58,0
1492.891272751385,2419.02978515625,1.3807032108306885,1370.664668654082,1559.580355591135,59,0
1492.9121067787205,2419.382568359375,1.3809945583343506,1370.6649641501017,1559.5799902086735,60,0
1492.9329408051253,2419.548828125,1.3808077573776245,1370.664592816568,1559.580693167288,61,0
1492.953774830599,2419.0439453125,1.3809397220611572,1370.6646623664114,1559.5800231298604,62,0
1492.974608854675,2419.412109375,1.3808047771453857,1370.6646230814158,1559.580541519945,63,0
1492.99544287782,2418.398681640625,1.380824089050293,1370.6648096496574,1559.5800329222561,64,0
1493.016276900033,2421.88671875,1.3814468383789062,1370.6643551523139,1559.580072936643,65,0
1493.0371109208495,2417.86474609375,1.381050944328308,1370.6647473932137,1559.5791465156922,66,0
1493.0579449407346,2418.150634765625,1.3803198337554932,1370.664550727959,1559.5792946840127,67,0
1493.078778959688,2419.4169921875,1.3807287216186523,1370.6640813478841,1559.5795071802713,68,0
1493.099612977245,2417.20849609375,1.380318522453308,1370.663622679829,1559.5789265602089,69,0
1493.1204469938705,2423.535888671875,1.381925106048584,1370.664340850725,1559.5787911903763,70,0
1493.1412810095644,2418.591796875,1.3806869983673096,1370.6639257029085,1559.580657402293,71,0
1493.1621150238616,2421.98583984375,1.3818042278289795,1370.6642104282728,1559.579766346883,72,0
1493.182949037227,2422.91943359375,1.3816933631896973,1370.6645152926994,1559.57985939884,73,0
1493.203783049662,2419.384033203125,1.380735158920288,1370.6635802680923,1559.5787586768931,74,0
1493.224617061165,2422.617431640625,1.3821135759353638,1370.6641209836782,1559.5785852844908,75,0
1493.245451071271,2420.6318359375,1.3810616731643677,1370.6638808196708,1559.5779740971877,76,0
1493.26628507998,2423.38330078125,1.381932020187378,1370.6641133173312,1559.5787912150074,77,0
1493.2871190882236,2419.30712890625,1.3808315992355347,1370.6640977046025,1559.578725217423,78,0
1493.30795309507,2422.727294921875,1.3822822570800781,1370.6634789107986,1559.5785344970836,79,0
1493.3287871009854,2422.5302734375,1.381951093673706,1370.6637993309068,1559.579551976562,80,0
1493.3496211055035,2422.06005859375,1.3819040060043335,1370.664073954833,1559.5784631703546,81,0
1493.3704551095561,2420.951171875,1.3813947439193726,1370.6637605009814,1559.5783988948,82,0
1493.3912891122116,2420.55517578125,1.3815895318984985,1370.6633711627526,1559.5785370283443,83,0
1493.41212311347,2421.99755859375,1.3815993070602417,1370.6636008187893,1559.5774839695612,84,0
1493.4329571137969,2421.64013671875,1.3813954591751099,1370.663557796633,1559.577898267453,85,0
1493.453791113193,2421.768798828125,1.3816568851470947,1370.6635837609815,1559.578596969726,86,0
1493.4746251116585,2424.0595703125,1.3822633028030396,1370.6635174995376,1559.5783102222915,87,0
1493.4954591091926,2421.2822265625,1.3814711570739746,1370.6634654631193,1559.5780045887238,88,0
1493.5162931053292,2420.38134765625,1.3812233209609985,1370.6637974660177,1559.577906200114,89,0
1493.537127100069,2420.887939453125,1.3815207481384277,1370.6635391319264,1559.5765314306022,90,0
1493.5579610943425,2421.1953125,1.3817768096923828,1370.663624246966,1559.5777212702637,91,0
1493.578795087219,2423.48876953125,1.3823713064193726,1370.663465649401,1559.576582639995,92,0
1493.5996290791645,2423.740966796875,1.382305383682251,1370.6636379350064,1559.5773804013702,93,0
1493.620463069713,2424.933837890625,1.3828538656234741,1370.6632280409149,1559.5774675185946,94,0
1493.6412970597955,2423.21533203125,1.3823593854904175,1370.6633236747002,1559.5775849227596,95,0
1493.6621310484811,2426.197021484375,1.3828401565551758,1370.6632876078104,1559.5773064711232,96,0
1493.68296503577,2426.99853515625,1.3827855587005615,1370.6631572813803,1559.577145680016,97,0
1493.703799022593,2422.93505859375,1.3819702863693237,1370.663274678563,1559.5773482891864,98,0
1493.724633008019,2423.414794921875,1.3823559284210205,1370.6629717124406,1559.5768798758693,99,0
1493.7454669925141,2423.684326171875,1.381978154182434,1370.6637246861242,1559.5769534977449,100,0
1493.7663009756116,2424.25244140625,1.3822016716003418,1370.6632412909585,1559.576393971825,101,0
1493.787134958244,2423.099609375,1.3818440437316895,1370.6631297873978,1559.5765491839006,102,0
1493.807968939479,2423.1826171875,1.3822386264801025,1370.6625523558046,1559.5763437603648,103,0
1493.828802919317,2425.12548828125,1.382645845413208,1370.6628247128804,1559.5758110284241,104,0
1493.8496368986894,2426.41845703125,1.3827852010726929,1370.662495836943,1559.5764631447455,105,0
1493.870470876665,2424.958740234375,1.3836342096328735,1370.6629305971398,1559.575977955891,106,0
1493.891304853709,2422.83935546875,1.3818354606628418,1370.6630239219262,1559.5773301331626,107,0
1493.912138829356,2426.329345703125,1.3826512098312378,1370.6626998529418,1559.576277338202,108,0
1493.932972804538,2426.45654296875,1.3827908039093018,1370.6629886446667,1559.5761503742015,109,0
1493.9538067783226,2426.185546875,1.3828452825546265,1370.6627795327188,1559.5758849219574,110,0
1493.97464075071,2425.7021484375,1.382524847984314,1370.6623412941403,1559.5752178185962,111,0
1493.995474722632,2424.819580078125,1.3832391500473022,1370.6625925877822,1559.575453460767,112,0
1494.016308693157,2427.06494140625,1.3829689025878906,1370.6622781291865,1559.576014323338,113,0
1494.0371426627505,2427.55517578125,1.3830500841140747,1370.662496985397,1559.5748190785603,114,0
1494.0579766314124,2424.6103515625,1.382279872894287,1370.6620626763886,1559.5757205269372,115,0
1494.078810598678,2424.83642578125,1.3823615312576294,1370.6623906704806,1559.5746474572927,116,0
1494.099644565013,2425.26708984375,1.3828409910202026,1370.6628312120101,1559.5749957418511,117,0
1494.120478530416,2425.29296875,1.382417917251587,1370.662615613046,1559.5756566086168,118,0
1494.141312494887,2425.3583984375,1.3825737237930298,1370.6624842414158,1559.5739128564883,119,0
1494.162146457962,2425.8837890625,1.3825794458389282,1370.6621021957606,1559.574925878737,120,0
1494.182980420105,2426.0712890625,1.3828175067901611,1370.6622986301556,1559.5742508846567,121,0
1494.2038143813165,2425.648193359375,1.3828197717666626,1370.6622696947447,1559.5742522989638,122,0
1494.224648341597,2424.008544921875,1.3826138973236084,1370.662346849887,1559.5744920502996,123,0
1494.24548230048,2426.201416015625,1.383191466331482,1370.661789458569,1559.5741523131912,124,0
1494.266316258432,2426.93994140625,1.3830641508102417,1370.6619490881267,1559.5743717574114,125,0
1494.287150215453,2424.44384765625,1.382458209991455,1370.6619735598995,1559.5742708565572,126,0
1494.3079841715426,2428.488037109375,1.383739709854126,1370.6619294925238,1559.573652894561,127,0
1494.328818126235,2428.116943359375,1.383154273033142,1370.6622850411645,1559.5740187688646,128,0
1494.349652079996,2424.47509765625,1.3822424411773682,1370.6619320487582,1559.5731941388528,129,0
1494.370486032826,2427.421630859375,1.3831396102905273,1370.661796486454,1559.5734897818193,130,0
1494.391319984724,2426.273681640625,1.3829227685928345,1370.662141728073,1559.5729395386425,131,0
1494.412153935226,2428.987060546875,1.3835996389389038,1370.6621884866126,1559.57352242623,132,0
1494.432987884796,2428.645263671875,1.3836486339569092,1370.661571216592,1559.572473386142,133,0
1494.453821833435,2428.599365234375,1.3848795890808105,1370.661566981917,1559.5726909524292,134,0
1494.4746557811432,2428.91552734375,1.3837316036224365,1370.6617761290313,1559.5728955733323,135,0
1494.4954897274536,2427.86474609375,1.3835333585739136,1370.6621517408457,1559.573414664277,136,0
1494.516323672833,2427.9375,1.3832653760910034,1370.6620370258643,1559.572719529098,137,0
1494.5371576172806,2429.10302734375,1.3836603164672852,1370.6620557889428,1559.5727910230817,138,0
1494.5579915607968,2427.240478515625,1.383462905883789,1370.6622711961616,1559.5722593579728,139,0
1494.578825502917,2428.500732421875,1.383554220199585,1370.6614557964858,1559.5725427431948,140,0
1494.5996594441049,2427.342529296875,1.383077621459961,1370.6611244322921,1559.5723311008062,141,0
1494.620493384362,2429.05908203125,1.3837133646011353,1370.661445243173,1559.5724833397423,142,0
1494.6413273236876,2429.5166015625,1.3835599422454834,1370.661307592978,1559.5721496814488,143,0
1494.662161262082,2430.58349609375,1.3840181827545166,1370.6616223970864,1559.5721029071876,144,0
1494.682995199079,2427.600341796875,1.3833178281784058,1370.6613781020292,1559.572059702914,145,0
1494.703829135145,2429.561279296875,1.3836543560028076,1370.661402602004,1559.5716571464775,146,0
1494.72466307028,2428.53076171875,1.3834147453308105,1370.6617081665286,1559.5721446263303,147,0
1494.7454970040176,2427.90380859375,1.3832377195358276,1370.6614224379352,1559.571126999986,148,0
1494.7663309372895,2427.34326171875,1.3832110166549683,1370.6611511629287,1559.5713483055094,149,0
1494.7871648691644,2426.919677734375,1.3831422328948975,1370.6607695834775,1559.5707209242482,150,0
1494.828832729655,2425.47314453125,1.3828397989273071,1370.6612964780752,1559.5703845813548,151,0
1494.8496666587362,2426.59423828125,1.3834128379821777,1370.6614136717465,1559.5701026125503,152,0
1494.87050058642,2425.599609375,1.3830604553222656,1370.6618835236857,1559.5710010517091,153,0
1494.891334513173,2428.85400390625,1.38419771194458,1370.6612358278855,1559.5701735276753,154,0
1494.912168438995,2426.75341796875,1.3833234310150146,1370.661225342259,1559.5700589925616,155,0
1494.9330023638859,2428.29248046875,1.383837342262268,1370.661191599558,1559.5691823561076,156,0
1494.953836287379,2429.208984375,1.3836684226989746,1370.6610438249495,1559.569535587294,157,0
1494.974670209941,2427.335205078125,1.383445382118225,1370.661181745993,1559.5689578762197,158,0
1494.9955041315711,2427.2822265625,1.3833677768707275,1370.6611734959085,1559.5697287070159,159,0
1495.0163380522704,2429.172119140625,1.3837392330169678,1370.6609551372885,1559.5693731482834,160,0
1495.0371719715724,2429.369140625,1.383728265762329,1370.6608648279478,1559.5699244304117,161,0
1495.0580058899436,2426.7802734375,1.3831932544708252,1370.6608312830506,1559.5697519323764,162,0
1495.078839807383,2430.72412109375,1.383983850479126,1370.660734954721,1559.5693748552417,163,0
1495.099673723891,2429.21728515625,1.3835664987564087,1370.6607646586347,1559.569363064536,164,0
1495.120507639468,2427.161865234375,1.3831652402877808,1370.6610966433657,1559.5691401984882,165,0
1495.141341553648,2429.654541015625,1.3837412595748901,1370.6606393876928,1559.5699137297381,166,0
1495.1621754673624,2427.045654296875,1.3830081224441528,1370.6605548999771,1559.5693785163712,167,0
1495.1830093792141,2429.657470703125,1.3839232921600342,1370.6609352185521,1559.5682238260179,168,0
1495.2038432906,2432.6787109375,1.3847047090530396,1370.6607597589864,1559.5689486275537,169,0
1495.2246772010544,2430.31005859375,1.3842264413833618,1370.6610257118605,1559.568610723237,170,0
1495.245511110112,2430.14599609375,1.384169340133667,1370.6607006334616,1559.5686595842344,171,0
1495.266345018238,2431.74462890625,1.384527325630188,1370.6604566913102,1559.568758517457,172,0
1495.287178925433,2428.112548828125,1.3834460973739624,1370.6610079041388,1559.568664711219,173,0
1495.308012831697,2431.132080078125,1.3841936588287354,1370.6600215185565,1559.5681240112767,174,0
1495.328846737029,2429.2607421875,1.3841699361801147,1370.660757938593,1559.5691039910346,175,0
1495.3496806409648,2428.46240234375,1.3835605382919312,1370.660448842674,1559.5683267547886,176,0
1495.370514543969,2432.6650390625,1.3847756385803223,1370.6607934548858,1559.5673834095596,177,0
1495.3913484460415,2429.25244140625,1.383938193321228,1370.659769012096,1559.567762372141,178,0
1495.412182347183,2429.611328125,1.3839315176010132,1370.6605546968515,1559.5676401706926,179,0
1495.4330162469269,2426.796630859375,1.3829718828201294,1370.6601138875142,1559.5669697537032,180,0
1495.453850145741,2431.72802734375,1.3844702243804932,1370.6604018650735,1559.5671482264995,181,0
1495.4746840440885,2429.822265625,1.3837615251541138,1370.6604564588058,1559.5672883698574,182,0
1495.4955179405729,2430.3642578125,1.3840582370758057,1370.6603969181815,1559.5678232509997,183,0
1495.5163518365925,2429.88525390625,1.3844819068908691,1370.6599961216982,1559.5667566119519,184,0
1495.53718573168,2430.23193359375,1.384181261062622,1370.66006529385,1559.5670867811975,185,0
1495.558019625371,2433.00244140625,1.384905219078064,1370.6599430559872,1559.5673826821685,186,0
1495.5788535181305,2431.49365234375,1.3842689990997314,1370.6603296454264,1559.5672930356834,187,0
1495.599687409959,2429.854248046875,1.3838562965393066,1370.6602098147805,1559.5667098384426,188,0
1495.6205213008554,2430.525634765625,1.3839303255081177,1370.660084473473,1559.5666589665161,189,0
1495.641355190355,2430.93701171875,1.3842065334320068,1370.6595835511841,1559.5661177511404,190,0
1495.662189078924,2430.5390625,1.3840605020523071,1370.660040773491,1559.5659886034719,191,0
1495.683022966561,2430.677490234375,1.3841124773025513,1370.6595484104898,1559.5665428600987,192,0
1495.703856853267,2430.4853515625,1.3840667009353638,1370.6598139547825,1559.566485892193,193,0
1495.7246907390415,2430.14794921875,1.3839411735534668,1370.6594875107069,1559.5663110869464,194,0
1495.745524623419,2433.260498046875,1.3847341537475586,1370.659302763671,1559.5663144080224,195,0
1495.766358507331,2432.3681640625,1.3845723867416382,1370.6597798801163,1559.5659537608226,196,0
1495.787192389846,2431.432861328125,1.3845748901367188,1370.6593163984192,1559.5660765292296,197,0
1495.8080262714295,2430.46484375,1.3842148780822754,1370.659187740779,1559.565533871599,198,0
1495.828860151616,2432.4111328125,1.3847534656524658,1370.6591713258329,1559.5655038172642,199,0
1495.849694031337,2431.705322265625,1.3842389583587646,1370.6600172786568,1559.5652483392762,200,0
