time,flux,flux_err,centroid_col,centroid_row,cadenceno,quality
1653.951346630794,1925.067626953125,1.2368855476379395,608.3445466670776,1817.65315763562,0,0
1653.972179905187,1926.4862060546875,1.2373207807540894,608.345225695462,1817.6532101427122,1,0
1653.9930131800454,1925.595703125,1.237123727798462,608.3449453167394,1817.6531752710707,2,0
1654.0138464553702,1926.362548828125,1.2372030019760132,608.3461855168971,1817.6527099420168,3,0
1654.034679730928,1929.41455078125,1.2385170459747314,608.3458382492614,1817.6527654563233,4,0
1654.0555130071834,1936.838623046875,1.2406589984893799,608.3466649590945,1817.6517751428757,5,0
1654.0763462839054,1942.6185302734375,1.24239182472229,608.3477393800438,1817.651133714228,6,0
1654.0971795613254,1957.0015869140625,1.24666166305542,608.3494168636663,1817.6517483704374,7,0
1654.1180128394435,1972.12548828125,1.2513679265975952,608.3503500818166,1817.6498791877914,8,0
1654.138846118028,1987.8123779296875,1.2558298110961914,608.3524864409638,1817.64890623151,9,0
1654.1596793975436,1999.3746337890625,1.2605046033859253,608.3547573957604,1817.6461751010158,10,0
1654.1805126777576,2020.925048828125,1.2659523487091064,608.3557852178665,1817.6472386260498,11,0
1654.2013459589025,2043.55322265625,1.2727172374725342,608.3572328554666,1817.6455291411612,12,0
1654.222179240513,2065.699951171875,1.279102087020874,608.358738519676,1817.643190232082,13,0
1654.243012523289,2086.6875,1.2852181196212769,608.3609569306308,1817.6418174405223,14,0
1654.2638458065294,2104.07177734375,1.290531873703003,608.3627824781238,1817.6388418022718,15,0
1654.2846790907015,2128.275146484375,1.2972006797790527,608.3638383482947,1817.6391032777492,16,0
1654.305512375573,2141.904052734375,1.3013674020767212,608.3654160966092,1817.6380351800515,17,0
1654.3263456613745,2160.741455078125,1.3070451021194458,608.3666963188205,1817.6367941460705,18,0
1654.347178947642,2176.41357421875,1.311237096786499,608.367960907344,1817.635705273602,19,0
1654.368012235073,2193.064697265625,1.3165054321289062,608.3688936586872,1817.6353932179,20,0
1654.3888455229705,2213.892333984375,1.3220884799957275,608.3709498006364,1817.6351775972328,21,0
1654.4096788115676,2231.552001953125,1.3272987604141235,608.3721812616836,1817.6329059814097,22,0
1654.4305121010939,2247.018798828125,1.3323529958724976,608.373446998296,1817.6311480250145,23,0
1654.4513453910865,2265.580078125,1.336654543876648,608.37434544769,1817.6308268531402,24,0
1654.472178682011,2280.593505859375,1.3407988548278809,608.3744972868369,1817.6307571817274,25,0
1654.493011973401,2295.312255859375,1.3451606035232544,608.376748146778,1817.628414711689,26,0
1654.5346785582765,2330.9619140625,1.3548896312713623,608.3775944423846,1817.62697346302,27,0
1654.555511851529,2347.9287109375,1.3598664999008179,608.378616208851,1817.6271453157058,28,0
1654.57634514548,2360.3662109375,1.363028645515442,608.380337769418,1817.6269970138787,29,0
1654.5971784398964,2368.2294921875,1.3652175664901733,608.3809847573284,1817.626034120913,30,0
1654.6180117350114,2373.675048828125,1.3668135404586792,608.381554103528,1817.6254325629645,31,0
1654.6388450305926,2376.370361328125,1.367547631263733,608.380836758663,1817.6244719586653,32,0
1654.6596783266386,2378.43017578125,1.3679603338241577,608.3821096945715,1817.6259229320317,33,0
1654.6805116233836,2377.65625,1.3680320978164673,608.3814199245704,1817.6262535964095,34,0
1654.7013449203614,2377.253662109375,1.3677492141723633,608.3809597666934,1817.6259138378252,35,0
1654.722178218038,2374.602783203125,1.3677916526794434,608.3810642852171,1817.6260494405262,36,0
1654.7430115159466,2379.153564453125,1.3685461282730103,608.3811653073218,1817.6261034746697,37,0
1654.7638448145535,2377.4921875,1.367861032485962,608.3812834455784,1817.6267740045191,38,0
1654.7846781133949,2371.88232421875,1.366680383682251,608.3814525106457,1817.6260211544143,39,0
1654.8055114127014,2373.2470703125,1.3666068315505981,608.3811390011336,1817.6276563474069,40,0
1654.8263447122395,2363.286865234375,1.3637646436691284,608.3811764961715,1817.6265177779019,41,0
1654.847178012477,2357.19873046875,1.3621102571487427,608.3803757159698,1817.6281255547594,42,0
1654.868011312715,2347.0859375,1.3593968152999878,608.3802037781849,1817.6285450453645,43,0
1654.888844613651,2332.6318359375,1.3552656173706055,608.3795499954995,1817.6281063110841,44,0
1654.9096779145866,2318.67919921875,1.3514341115951538,608.3792541651268,1817.6295530523905,45,0
1654.9305112159882,2305.648681640625,1.348335862159729,608.3781104612409,1817.629501512452,46,0
1654.951344517623,2297.866455078125,1.345465064048767,608.3769604101589,1817.6316817193385,47,0
1654.9721778197224,2289.369873046875,1.3432362079620361,608.3768260533275,1817.6331095392588,48,0
1654.993011121822,2287.43505859375,1.3425791263580322,608.3768778949496,1817.6328298654953,49,0
1655.013844424388,2284.416259765625,1.341830849647522,608.3762917110231,1817.6322057388456,50,0
1655.034677727187,2282.35205078125,1.3414106369018555,608.3765789274103,1817.6331621528298,51,0
1655.055511030218,2282.27294921875,1.3411839008331299,608.3765530813987,1817.632179865835,52,0
1655.0763443334824,2289.314697265625,1.3435769081115723,608.3765120321108,1817.6329045925295,53,0
1655.0971776367464,2286.914794921875,1.3427870273590088,608.3773747350197,1817.6318318419062,54,0
1655.118010940477,2288.294921875,1.3428571224212646,608.3766685015752,1817.6322157035165,55,0
1655.1388442444395,2291.612060546875,1.3441143035888672,608.3772089437927,1817.6326782946426,56,0
1655.1596775484015,2290.919921875,1.3439819812774658,608.3767949785413,1817.6324187615255,57,0
1655.180510852597,2284.765625,1.3419742584228516,608.3766074996794,1817.6322725038467,58,0
1655.201344156793,2281.3671875,1.3410006761550903,608.376718166768,1817.6334342841976,59,0
1655.222177461454,2274.31591796875,1.3391849994659424,608.3759869736757,1817.6335993003347,60,0
1655.2430107661144,2271.696533203125,1.338606595993042,608.3762127118608,1817.634102358131,61,0
1655.263844070776,2261.241455078125,1.3354922533035278,608.3762809671082,1817.6322631368128,62,0
1655.2846773756705,2251.5234375,1.3325488567352295,608.3762135473594,1817.632616574173,63,0
1655.305510680797,2252.3388671875,1.3328853845596313,608.375074046835,1817.6354274202815,64,0
1655.326343985924,2244.39599609375,1.3306431770324707,608.3751519898846,1817.6352882249257,65,0
1655.347177291051,2240.3681640625,1.329496145248413,608.3743277428506,1817.6348963548166,66,0
1655.3680105964104,2236.583740234375,1.328415870666504,608.3753841127548,1817.636139133442,67,0
1655.3888439017705,2232.414306640625,1.3271918296813965,608.374652216122,1817.6342989023694,68,0
1655.4096772073626,2236.134033203125,1.3290430307388306,608.3748973983004,1817.635820644368,69,0
1655.4305105129552,2235.28466796875,1.3290787935256958,608.3744358311945,1817.6334180926776,70,0
1655.4513438185475,2235.2646484375,1.3282357454299927,608.3752435246499,1817.6363853269088,71,0
1655.47217712414,2239.321533203125,1.3290802240371704,608.3749080243138,1817.6358198104044,72,0
1655.4930104297325,2240.63916015625,1.3296253681182861,608.3749527793474,1817.6347133032195,73,0
1655.513843735558,2244.2666015625,1.3307963609695435,608.3745438952731,1817.6357092824205,74,0
1655.534677041384,2248.81298828125,1.3319603204727173,608.3744817687021,1817.6355831250166,75,0
1655.5555103472084,2252.143310546875,1.3328819274902344,608.375551530828,1817.6348564420894,76,0
1655.576343653033,2252.97607421875,1.3329708576202393,608.3765079744782,1817.6353029413135,77,0
1655.5971769588596,2255.376708984375,1.333855152130127,608.3755023937481,1817.6342403699364,78,0
1655.6180102646845,2255.529052734375,1.3338615894317627,608.3754710375881,1817.6353263767953,79,0
1655.63884357051,2249.5654296875,1.3323426246643066,608.3760095401456,1817.63463654547,80,0
1655.659676876335,2248.19140625,1.3319129943847656,608.3756399593988,1817.634585898148,81,0
1655.680510182161,2245.486328125,1.331628680229187,608.3749272765288,1817.6356649086188,82,0
1655.701343487986,2241.9833984375,1.3298397064208984,608.3749113050796,1817.635912646774,83,0
1655.7221767938115,2234.9921875,1.32797110080719,608.3749759681766,1817.63570259985,84,0
1655.743010099636,2231.215087890625,1.327107310295105,608.3745983584521,1817.6350901548158,85,0
1655.7638434052296,2229.536865234375,1.326867699623108,608.3751245594838,1817.6359070443507,86,0
1655.7846767110545,2230.231201171875,1.3267594575881958,608.3741189818048,1817.6370067242276,87,0
1655.805510016647,2225.998046875,1.3256782293319702,608.3740652646811,1817.6365168176405,88,0
1655.8263433222385,2220.094482421875,1.3237210512161255,608.3739807837615,1817.635876221902,89,0
1655.847176627831,2213.775390625,1.3229159116744995,608.3738750912036,1817.6374751533588,90,0
1655.8680099334242,2209.442138671875,1.3208649158477783,608.3733824224091,1817.6376607411705,91,0
1655.888843238784,2199.64208984375,1.3180742263793945,608.373049220987,1817.6385348335477,92,0
1655.909676544376,2193.648193359375,1.316259741783142,608.3723620181136,1817.637403754047,93,0
1655.9305098495029,2185.9658203125,1.3145004510879517,608.3720569063169,1817.6390177971916,94,0
1655.951343154863,2175.6640625,1.3110281229019165,608.3720476136507,1817.6384443114082,95,0
1655.97217645999,2171.0244140625,1.3098118305206299,608.3710681403328,1817.6407041044401,96,0
1655.9930097651165,2162.598876953125,1.3086583614349365,608.3704039876925,1817.6405672044664,97,0
1656.013843070243,2157.8876953125,1.3063013553619385,608.3698025916232,1817.6410654984868,98,0
1656.0346763751377,2152.7099609375,1.3044252395629883,608.3704180748512,1817.6415358661752,99,0
1656.0555096800315,2149.96142578125,1.3035666942596436,608.3701708259891,1817.6414397736287,100,0
1656.076342984692,2145.244140625,1.302217960357666,608.3705667913216,1817.6418351794484,101,0
1656.0971762893535,2148.796630859375,1.3032236099243164,608.3695030353449,1817.641561450353,102,0
1656.118009593782,2146.694580078125,1.3026682138442993,608.3693928659852,1817.6422558027473,103,0
1656.138842898444,2146.397216796875,1.3026795387268066,608.3702772621682,1817.6412214417714,104,0
1656.1596762026384,2142.7958984375,1.301694393157959,608.3702544989729,1817.6422684134657,105,0
1656.180509506834,2144.44873046875,1.3022964000701904,608.369946783016,1817.6418587856635,106,0
1656.20134281103,2143.48046875,1.3016526699066162,608.3697120748827,1817.6427795165118,107,0
1656.2221761149924,2143.89697265625,1.3023396730422974,608.3697129456094,1817.6418558078767,108,0
1656.243009418955,2141.369384765625,1.3029098510742188,608.3689827180307,1817.6420335241544,109,0
1656.2638427226846,2134.312255859375,1.299363613128662,608.3693855442539,1817.642288995959,110,0
1656.284676026181,2133.579833984375,1.2991397380828857,608.3685920776213,1817.6435238558288,111,0
1656.305509329679,2123.093017578125,1.2958124876022339,608.3684309011683,1817.6435423752864,112,0
1656.3263426329436,2118.58154296875,1.2948428392410278,608.3670369688547,1817.6441623711785,113,0
1656.347175936207,2112.48095703125,1.2926772832870483,608.3679488807106,1817.6444757210506,114,0
1656.3680092392374,2108.215576171875,1.2914934158325195,608.3676775290029,1817.6443446316732,115,0
1656.3888425422688,2104.529052734375,1.2904462814331055,608.3674966801626,1817.6448390086207,116,0
1656.409675845069,2100.904296875,1.2894623279571533,608.3662130065364,1817.644989822556,117,0
1656.430509147634,2103.510986328125,1.2918521165847778,608.368067925173,1817.6441587876063,118,0
1656.451342450199,2103.760986328125,1.2903891801834106,608.3672003642797,1817.6448223019484,119,0
1656.472175752533,2105.4970703125,1.290579915046692,608.3667123389806,1817.6452705268575,120,0
1656.4930090546331,2105.745361328125,1.2907874584197998,608.3663674084794,1817.644916200133,121,0
1656.5138423567325,2108.605712890625,1.2917078733444214,608.3673585123463,1817.6438932329372,122,0
1656.5346756585996,2111.349365234375,1.2924939393997192,608.3677168574969,1817.6445619707572,123,0
1656.555508960233,2111.387451171875,1.2928991317749023,608.3679816813658,1817.6435919845221,124,0
1656.5763422618684,2117.65673828125,1.2947280406951904,608.367299561836,1817.6434322904909,125,0
1656.5971755632704,2117.50830078125,1.2943205833435059,608.3678402223187,1817.6439197289526,126,0
1656.6180088644385,2120.149658203125,1.2951103448867798,608.3677704066715,1817.643260530441,127,0
1656.6388421656065,2122.716552734375,1.2959481477737427,608.3682158832901,1817.6443923197803,128,0
1656.65967546631,2118.6455078125,1.2947378158569336,608.3687249019702,1817.6440536308482,129,0
1656.680508767014,2116.34130859375,1.2937655448913574,608.3680386297152,1817.644334425521,130,0
1656.7013420674834,2116.341552734375,1.2939597368240356,608.3676435666465,1817.644550823755,131,0
1656.722175367953,2115.115966796875,1.2943974733352661,608.3677062803031,1817.6440665393895,132,0
1656.743008667958,2112.86962890625,1.292852759361267,608.3674281982373,1817.6451145492294,133,0
1656.763841967963,2111.0556640625,1.2925441265106201,608.3680816841072,1817.6447246487867,134,0
1656.784675267735,2111.47021484375,1.2923738956451416,608.3680905147226,1817.6446171609405,135,0
1656.8055085675055,2109.3662109375,1.2919458150863647,608.3667849628772,1817.6444200027918,136,0
1656.8263418668116,2109.672607421875,1.291830062866211,608.3673490539934,1817.644365627118,137,0
1656.8471751661186,2107.2626953125,1.2915081977844238,608.3675128004339,1817.644627192068,138,0
1656.8680084649586,2106.76806640625,1.2911155223846436,608.3664796463731,1817.6443913554274,139,0
1656.888841763799,2102.9345703125,1.2900835275650024,608.3670829598938,1817.6447557472932,140,0
1656.9096750626386,2096.43359375,1.288137435913086,608.3670606366001,1817.6452536435343,141,0
1656.930508361013,2089.0234375,1.2859071493148804,608.3665065230043,1817.645710538833,142,0
1656.9513416591558,2087.732421875,1.2853748798370361,608.3663808073858,1817.6456588531264,143,0
1656.9721749572975,2084.500732421875,1.2846598625183105,608.3660336619968,1817.6458128052855,144,0
1656.9930082549736,2074.175048828125,1.2816367149353027,608.3663481875383,1817.6459437086776,145,0
1657.0138415526499,2075.401611328125,1.2818851470947266,608.3660701671422,1817.6470449702354,146,0
1657.034674850094,2070.94970703125,1.2806981801986694,608.3653425655547,1817.6472471621353,147,0
1657.0555081473044,2068.393798828125,1.279908299446106,608.3653063611665,1817.6475576982252,148,0
1657.0763414442815,2065.052734375,1.2792445421218872,608.365564368367,1817.6470268923786,149,0
1657.097174741026,2065.84228515625,1.2788524627685547,608.3663844338424,1817.6461035856903,150,0
1657.118008037771,2068.04736328125,1.2798713445663452,608.3650749015255,1817.647308871664,151,0
1657.138841334051,2066.376953125,1.2793329954147339,608.3652767554597,1817.6470406155333,152,0
1657.15967463033,2070.10888671875,1.2804309129714966,608.3648604709473,1817.646854596313,153,0
1657.1805079261435,2069.2958984375,1.2807936668395996,608.3651634629316,1817.6470585025477,154,0
1657.201341221956,2068.0576171875,1.279728889465332,608.3650529043189,1817.6472064532786,155,0
1657.2221745173051,2067.5068359375,1.2798271179199219,608.3660828595781,1817.6468796805766,156,0
1657.2430078126536,2066.269287109375,1.2793478965759277,608.3657710535871,1817.64703206049,157,0
1657.263841107768,2063.99853515625,1.2786455154418945,608.3649427505205,1817.6470715879018,158,0
1657.2846744026506,2062.583251953125,1.2793326377868652,608.364612235704,1817.6474043690944,159,0
1657.3055076970666,2057.5390625,1.2768017053604126,608.3647134502022,1817.6477889377622,160,0
1657.3263409914834,2050.9033203125,1.2746227979660034,608.3641016159752,1817.647674796143,161,0
1657.368007579618,2039.927978515625,1.2715755701065063,608.3647514016142,1817.6446676877451,162,0
1657.388840873336,2042.438720703125,1.2721103429794312,608.3630421145352,1817.6466570587327,163,0
1657.47217404588,2034.3642578125,1.2714204788208008,608.3643255754758,1817.6470623884823,164,0
1657.5138406305214,2039.45751953125,1.2711172103881836,608.3648632843876,1817.6452950087016,165,0
1657.5346739226102,2041.810302734375,1.2720237970352173,608.3645115299007,1817.6461017271386,166,0
1657.5555072144666,2046.6177978515625,1.2736188173294067,608.3642512510369,1817.6470827709566,167,0
1657.597173797478,2048.064697265625,1.2740919589996338,608.3655603678825,1817.6444971064648,168,0
1657.6180070884025,2049.830322265625,1.2743453979492188,608.3673370271096,1817.6454713078267,169,0
1657.6805069602435,2052.5673828125,1.2752000093460083,608.364960871579,1817.6467785765399,170,0
1657.722173540229,2045.7789306640625,1.273329734802246,608.3663833346828,1817.6472649416694,171,0
1657.743006829756,2045.4273681640625,1.2734019756317139,608.365812599691,1817.6454588350623,172,0
1657.7638401192835,2051.96875,1.2753204107284546,608.3632899205745,1817.6456906976723,173,0
1657.7846734083446,2045.8310546875,1.273314356803894,608.3653306630385,1817.6473259739819,174,0
1657.805506697173,2047.18310546875,1.2740304470062256,608.3653289992609,1817.6457409440516,175,0
1657.8263399857697,2046.0384521484375,1.2731887102127075,608.3642062204931,1817.6452796458382,176,0
1657.8471732741325,2045.0582275390625,1.2728739976882935,608.3646140894259,1817.647090807042,177,0
1657.8680065622625,2043.322998046875,1.2728744745254517,608.3653171217562,1817.6472162272053,178,0
1657.8888398501595,2043.654296875,1.2728310823440552,608.3650742407424,1817.6470965377537,179,0
1657.9096731375905,2041.9984130859375,1.272050380706787,608.3638406231545,1817.6470231947524,180,0
1657.930506425023,2043.0072021484375,1.2726373672485352,608.3646481020463,1817.6476355458176,181,0
1657.9513397119895,2038.054931640625,1.2711207866668701,608.3643442766798,1817.6475203623725,182,0
1657.972172998955,2031.56689453125,1.2691152095794678,608.3637167242418,1817.6473845186172,183,0
1657.9930062854546,2035.170166015625,1.2701971530914307,608.3630066948919,1817.6481087371403,184,0
1658.013839571722,2029.923095703125,1.268652319908142,608.3634137955503,1817.646378117797,185,0
1658.0346728577574,2030.086669921875,1.2686879634857178,608.3621140292487,1817.6487236530297,186,0
1658.0555061435596,2026.216552734375,1.267417073249817,608.3633509864528,1817.647372235382,187,0
1658.076339429128,2029.0152587890625,1.2683069705963135,608.3622365212738,1817.6487164845362,188,0
1658.0971727142314,2028.975830078125,1.268428921699524,608.3632741163935,1817.648523060975,189,0
1658.1180059993344,2028.146728515625,1.2686703205108643,608.3627757051669,1817.6478211634385,190,0
1658.1388392839726,2033.56591796875,1.270361065864563,608.3623397500157,1817.6491003016272,191,0
1658.1596725683776,2029.76025390625,1.268679141998291,608.3622728772954,1817.6478442933749,192,0
1658.180505852549,2036.3624267578125,1.270493507385254,608.3618205734713,1817.6489414173377,193,0
1658.2013391364885,2030.908935546875,1.2687418460845947,608.3636789584741,1817.6468287854343,194,0
1658.2221724201945,2035.3165283203125,1.2700990438461304,608.362188981278,1817.646566237316,195,0
1658.2430057034348,2030.708984375,1.2689331769943237,608.3632523548339,1817.6464953736477,196,0
1658.2638389866765,2030.3984375,1.2686740159988403,608.3625607406086,1817.6452476110178,197,0
1658.284672269451,2031.5126953125,1.269176721572876,608.3620880280387,1817.6468070956207,198,0
1658.3055055519935,2034.044921875,1.2696309089660645,608.3621400805719,1817.6498810140806,199,0
1658.3263388343025,2026.862060546875,1.2674471139907837,608.3618855672236,1817.6468355559432,200,0
1658.3471721163792,2022.04248046875,1.2668869495391846,608.362388822965,1817.650300472599,201,0
