time,flux,flux_err,centroid_col,centroid_row,cadenceno,quality
1437.9945152757305,394.5592956542969,0.5655717849731445,1026.0,90.0,0,0
1438.015349289239,382.3451232910156,0.556930661201477,1026.0,90.0,1,0
1438.0361833036804,370.9498596191406,0.5491158366203308,1026.0,90.0,2,0
1438.057017318587,360.41448974609375,0.5421387553215027,1026.0,90.0,3,0
1438.0778513339578,350.7527160644531,0.5351151823997498,1026.0,90.0,4,0
1438.098685349796,343.2712097167969,0.5299662947654724,1026.0,90.0,5,0
1438.1195193656336,336.4705810546875,0.5249291658401489,1026.0,90.0,6,0
1438.1403533819362,330.3728332519531,0.5204868912696838,1026.0,90.0,7,0
1438.161187398704,325.5228271484375,0.5171682834625244,1026.0,90.0,8,0
1438.1820214150075,319.24725341796875,0.512385904788971,1026.0,90.0,9,0
1438.2028554308454,314.6829528808594,0.509146511554718,1026.0,90.0,10,0
1438.223689447149,309.2301330566406,0.5052571892738342,1026.0,90.0,11,0
1438.2445234629865,304.39056396484375,0.5014275312423706,1026.0,90.0,12,0
1438.265357478358,301.971923828125,0.5000346899032593,1026.0,90.0,13,0
1438.2861914932641,297.7718505859375,0.49652591347694397,1026.0,90.0,14,0
1438.307025507704,296.2567443847656,0.4952813684940338,1026.0,90.0,15,0
1438.3278595216784,293.53546142578125,0.4932188093662262,1026.0,90.0,16,0
1438.348693535188,292.37603759765625,0.4922035336494446,1026.0,90.0,17,0
1438.369527547766,288.98382568359375,0.48968246579170227,1026.0,90.0,18,0
1438.390361559879,287.10357666015625,0.4881761074066162,1026.0,90.0,19,0
1438.41119557106,285.8515625,0.48726409673690796,1026.0,90.0,20,0
1438.432029581309,284.9005126953125,0.48653414845466614,1026.0,90.0,21,0
1438.4528635910924,284.5265197753906,0.48629581928253174,1026.0,90.0,22,0
1438.4736975999458,285.7101135253906,0.4872463643550873,1026.0,90.0,23,0
1438.494531607866,284.8524169921875,0.48635873198509216,1026.0,90.0,24,0
1438.515365614855,286.0773620605469,0.48720812797546387,1026.0,90.0,25,0
1438.5361996209144,285.539306640625,0.48717206716537476,1026.0,90.0,26,0
1438.557033626043,284.9437255859375,0.48657935857772827,1026.0,90.0,27,0
1438.577867630238,286.1776428222656,0.4873887598514557,1026.0,90.0,28,0
1438.598701633503,285.28033447265625,0.48670336604118347,1026.0,90.0,29,0
1438.6195356353705,285.6783447265625,0.48699668049812317,1026.0,90.0,30,0
1438.6403696363059,286.09210205078125,0.48720672726631165,1026.0,90.0,31,0
1438.6612036363115,286.48858642578125,0.48760566115379333,1026.0,90.0,32,0
1438.6820376349197,285.01373291015625,0.48667171597480774,1026.0,90.0,33,0
1438.7028716325965,286.4611511230469,0.48777395486831665,1026.0,90.0,34,0
1438.7237056293425,286.5975036621094,0.48762428760528564,1026.0,90.0,35,0
1438.744539624691,287.055419921875,0.48803022503852844,1026.0,90.0,36,0
1438.7653736191069,285.96563720703125,0.4876798093318939,1026.0,90.0,37,0
1438.7862076121276,286.4704284667969,0.48794880509376526,1026.0,90.0,38,0
1438.807041604216,286.45721435546875,0.4876258075237274,1026.0,90.0,39,0
1438.8278755949068,286.8394775390625,0.488076388835907,1026.0,90.0,40,0
1438.848709584668,286.59521484375,0.48765844106674194,1026.0,90.0,41,0
1438.8695435730324,287.6893615722656,0.4886687994003296,1026.0,90.0,42,0
1438.890377560464,284.189453125,0.48587507009506226,1026.0,90.0,43,0
1438.9112115464995,284.6808166503906,0.4865562319755554,1026.0,90.0,44,0
1438.932045531138,285.20477294921875,0.4865383803844452,1026.0,90.0,45,0
1438.952879514844,284.72552490234375,0.48619726300239563,1026.0,90.0,46,0
1438.9737134976194,285.6492614746094,0.4868824779987335,1026.0,90.0,47,0
1438.9945474785331,286.95367431640625,0.48786357045173645,1026.0,90.0,48,0
1439.0153814585142,287.36224365234375,0.48919549584388733,1026.0,90.0,49,0
1439.0362154375644,287.57965087890625,0.48846933245658875,1026.0,90.0,50,0
1439.057049415219,286.7786865234375,0.4880218803882599,1026.0,90.0,51,0
1439.0778833914742,287.9510498046875,0.48864027857780457,1026.0,90.0,52,0
1439.0987173667995,287.9457702636719,0.48877981305122375,1026.0,90.0,53,0
1439.1195513407274,287.4173278808594,0.4888707399368286,1026.0,90.0,54,0
1439.1403853132579,287.9183654785156,0.48890259861946106,1026.0,90.0,55,0
1439.1612192848575,287.4104919433594,0.48843100666999817,1026.0,90.0,56,0
1439.18205325506,286.69378662109375,0.4878745675086975,1026.0,90.0,57,0
1439.2028872243313,288.5165100097656,0.4891934394836426,1026.0,90.0,58,0
1439.223721192207,288.41351318359375,0.48914992809295654,1026.0,90.0,59,0
1439.2445551586839,288.1982727050781,0.48934081196784973,1026.0,90.0,60,0
1439.2653891237642,288.7607727050781,0.48928168416023254,1026.0,90.0,61,0
1439.286223088379,288.4158935546875,0.4891021251678467,1026.0,90.0,62,0
1439.3070570511309,287.06024169921875,0.4881974756717682,1026.0,90.0,63,0
1439.327891012952,286.7744140625,0.48798292875289917,1026.0,90.0,64,0
1439.3487249733762,287.6820983886719,0.48945656418800354,1026.0,90.0,65,0
1439.3695589328686,287.07977294921875,0.48825499415397644,1026.0,90.0,66,0
1439.3903928909644,288.00823974609375,0.488780677318573,1026.0,90.0,67,0
1439.4112268476629,288.62939453125,0.48916512727737427,1026.0,90.0,68,0
1439.43206080343,286.9861755371094,0.4884118437767029,1026.0,90.0,69,0
1439.4528947578,287.4346618652344,0.48831164836883545,1026.0,90.0,70,0
1439.473728711239,288.9127502441406,0.48965001106262207,1026.0,90.0,71,0
1439.4945626632798,288.1639404296875,0.48889464139938354,1026.0,90.0,72,0
1439.515396614391,288.49139404296875,0.4890780448913574,1026.0,90.0,73,0
1439.5362305641056,288.6039123535156,0.4890895187854767,1026.0,90.0,74,0
1439.5570645124226,288.3470153808594,0.4889962375164032,1026.0,90.0,75,0
1439.577898459808,288.7984619140625,0.489245742559433,1026.0,90.0,76,0
1439.598732405796,288.67138671875,0.4891981780529022,1026.0,90.0,77,0
1439.6195663508524,288.8770446777344,0.489836186170578,1026.0,90.0,78,0
1439.6404002945128,288.2871398925781,0.4889415204524994,1026.0,90.0,79,0
1439.6612342372414,288.8223876953125,0.48984360694885254,1026.0,90.0,80,0
1439.682068178573,288.84521484375,0.4892650246620178,1026.0,90.0,81,0
1439.7029021189735,288.5331726074219,0.489458292722702,1026.0,90.0,82,0
1439.723736057978,288.4952392578125,0.48922446370124817,1026.0,90.0,83,0
1439.744569995584,288.26190185546875,0.4889047145843506,1026.0,90.0,84,0
1439.765403932724,288.4131774902344,0.4890154302120209,1026.0,90.0,85,0
1439.7862378680024,288.74041748046875,0.4896130859851837,1026.0,90.0,86,0
1439.8070718023496,288.5428161621094,0.48927170038223267,1026.0,90.0,87,0
1439.827905735765,288.6328125,0.489235520362854,1026.0,90.0,88,0
1439.8487396677833,288.7276916503906,0.4891437292098999,1026.0,90.0,89,0
1439.8695735988704,288.7027587890625,0.4892442524433136,1026.0,90.0,90,0
1439.8904075285614,288.38897705078125,0.4892958402633667,1026.0,90.0,91,0
1439.9112414573206,288.6016540527344,0.4892522990703583,1026.0,90.0,92,0
1439.9320753846825,288.56707763671875,0.4894024431705475,1026.0,90.0,93,0
1439.952909311113,287.6591796875,0.4891504645347595,1026.0,90.0,94,0
1439.973743236146,289.3262634277344,0.48961013555526733,1026.0,90.0,95,0
1439.9945771602484,288.51007080078125,0.48917415738105774,1026.0,90.0,96,0
1440.015411082953,289.30419921875,0.4900543689727783,1026.0,90.0,97,0
1440.0362450047285,288.8183288574219,0.4894949793815613,1026.0,90.0,98,0
1440.0570789255717,289.1842346191406,0.4899199903011322,1026.0,90.0,99,0
1440.0779128450158,289.05853271484375,0.48950913548469543,1026.0,90.0,100,0
1440.098746763531,288.3324279785156,0.48887571692466736,1026.0,90.0,101,0
1440.1195806806481,289.40966796875,0.4898180067539215,1026.0,90.0,102,0
1440.1404145968345,289.27801513671875,0.4897829294204712,1026.0,90.0,103,0
1440.161248512089,288.8162536621094,0.48970454931259155,1026.0,90.0,104,0
1440.1820824259466,288.6468505859375,0.4892115890979767,1026.0,90.0,105,0
1440.2029163388734,289.0328063964844,0.4898565411567688,1026.0,90.0,106,0
1440.223750250403,289.20050048828125,0.4895770847797394,1026.0,90.0,107,0
1440.2445841610015,289.2890625,0.4901380240917206,1026.0,90.0,108,0
1440.2654180706681,288.7067565917969,0.48987099528312683,1026.0,90.0,109,0
1440.286251978938,288.761962890625,0.4893381893634796,1026.0,90.0,110,0
1440.3070858862766,289.2037048339844,0.48956865072250366,1026.0,90.0,111,0
1440.3279197926836,289.5885009765625,0.48990732431411743,1026.0,90.0,112,0
1440.348753697694,289.47418212890625,0.490134596824646,1026.0,90.0,113,0
1440.3695876017725,288.1811218261719,0.488889217376709,1026.0,90.0,114,0
1440.390421504455,288.8301696777344,0.4902030825614929,1026.0,90.0,115,0
1440.411255406671,290.200439453125,0.490290105342865,1026.0,90.0,116,0
1440.4320893074905,289.18463134765625,0.4896985590457916,1026.0,90.0,117,0
1440.452923206913,288.96258544921875,0.4893929064273834,1026.0,90.0,118,0
1440.4737571054034,288.8275451660156,0.48955783247947693,1026.0,90.0,119,0
1440.4945910029628,288.7580261230469,0.48928070068359375,1026.0,90.0,120,0
1440.515424899591,289.76519775390625,0.49010053277015686,1026.0,90.0,121,0
1440.536258794823,289.03070068359375,0.4894915819168091,1026.0,90.0,122,0
1440.5570926891237,288.63702392578125,0.49106845259666443,1026.0,90.0,123,0
1440.577926582492,289.4884033203125,0.48981165885925293,1026.0,90.0,124,0
1440.5987604744641,290.13482666015625,0.4909195601940155,1026.0,90.0,125,0
1440.6195943655046,288.5382385253906,0.49055102467536926,1026.0,90.0,126,0
1440.6404282556132,289.3999328613281,0.4899005889892578,1026.0,90.0,127,0
1440.661262144791,288.68572998046875,0.4892415702342987,1026.0,90.0,128,0
1440.6820960325715,288.7355651855469,0.48928073048591614,1026.0,90.0,129,0
1440.702929919421,289.0072021484375,0.4897565543651581,1026.0,90.0,130,0
1440.7237638053396,289.74468994140625,0.4900040626525879,1026.0,90.0,131,0
1440.7445976898612,289.13531494140625,0.489565908908844,1026.0,90.0,132,0
1440.7654315734505,288.6184387207031,0.4892288148403168,1026.0,90.0,133,0
1440.786265456109,288.5756530761719,0.4893612563610077,1026.0,90.0,134,0
1440.8070993378365,289.7748107910156,0.4900444746017456,1026.0,90.0,135,0
1440.827933218632,288.15625,0.4889332056045532,1026.0,90.0,136,0
1440.8487670980305,287.2528381347656,0.48830467462539673,1026.0,90.0,137,0
1440.869600976498,287.21856689453125,0.48835957050323486,1026.0,90.0,138,0
1440.890434854035,287.90234375,0.488908588886261,1026.0,90.0,139,0
1440.911268730175,288.1352233886719,0.48878785967826843,1026.0,90.0,140,0
1440.9321026058485,289.22613525390625,0.48962944746017456,1026.0,90.0,141,0
1440.9529364801251,288.6735534667969,0.48956412076950073,1026.0,90.0,142,0
1440.9737703534688,289.7308044433594,0.4900265634059906,1026.0,90.0,143,0
1440.9946042254176,288.2543640136719,0.48907166719436646,1026.0,90.0,144,0
1441.0154380969002,289.7273864746094,0.4900376796722412,1026.0,90.0,145,0
1441.0571058361406,288.39434814453125,0.4896283745765686,1026.0,90.0,146,0
1441.0779397043646,289.1836242675781,0.48971614241600037,1026.0,90.0,147,0
1441.1404413025139,288.23358154296875,0.4889458119869232,1026.0,90.0,148,0
1441.1821090296467,288.7269592285156,0.48929503560066223,1026.0,90.0,149,0
1441.2029428918154,288.8623962402344,0.48963531851768494,1026.0,90.0,150,0
1441.2237767530546,288.5212707519531,0.4892439544200897,1026.0,90.0,151,0
1441.2446106128964,290.3729553222656,0.49066734313964844,1026.0,90.0,152,0
1441.2862783297846,288.8548278808594,0.4892406165599823,1026.0,90.0,153,0
1441.307112186831,288.281982421875,0.4908875823020935,1026.0,90.0,154,0
1441.3279460429476,289.22900390625,0.4898034334182739,1026.0,90.0,155,0
1441.3487798981319,289.2499694824219,0.4896223545074463,1026.0,90.0,156,0
1441.369613751919,288.9834289550781,0.48948389291763306,1026.0,90.0,157,0
1441.3904476047755,289.4114990234375,0.4900398552417755,1026.0,90.0,158,0
1441.411281457167,289.7901611328125,0.490017294883728,1026.0,90.0,159,0
1441.43211530816,289.041015625,0.48953136801719666,1026.0,90.0,160,0
1441.4529491582225,288.54638671875,0.4891541302204132,1026.0,90.0,161,0
1441.473783006888,288.8257751464844,0.4896117150783539,1026.0,90.0,162,0
1441.4946168550875,289.4649353027344,0.489877313375473,1026.0,90.0,163,0
1441.5154507018901,288.3876953125,0.4889874756336212,1026.0,90.0,164,0
1441.5362845482264,290.0548400878906,0.4902172088623047,1026.0,90.0,165,0
1441.557118393167,289.0231018066406,0.48964637517929077,1026.0,90.0,166,0
1441.5779522371765,289.2220764160156,0.48963218927383423,1026.0,90.0,167,0
1441.5987860802538,288.8437194824219,0.4895663559436798,1026.0,90.0,168,0
1441.6196199223996,288.8340759277344,0.48927441239356995,1026.0,90.0,169,0
1441.640453763614,289.8741149902344,0.4903714060783386,1026.0,90.0,170,0
1441.6612876034314,290.4070739746094,0.49101588129997253,1026.0,90.0,171,0
1441.6821214427841,288.635009765625,0.4893152415752411,1026.0,90.0,172,0
1441.7029552807385,288.2525634765625,0.488937109708786,1026.0,90.0,173,0
1441.7237891182285,289.0643005371094,0.4896273612976074,1026.0,90.0,174,0
1441.7446229543216,289.6046447753906,0.4902452528476715,1026.0,90.0,175,0
1441.7654567894824,288.6167297363281,0.4893082082271576,1026.0,90.0,176,0
1441.786290623712,289.2932434082031,0.4901491105556488,1026.0,90.0,177,0
1441.8071244570106,289.8562316894531,0.4900577664375305,1026.0,90.0,178,0
1441.8279582893774,289.27154541015625,0.4897138774394989,1026.0,90.0,179,0
1441.848792120813,289.615478515625,0.4899298846721649,1026.0,90.0,180,0
1441.8696259513176,290.5081787109375,0.49082452058792114,1026.0,90.0,181,0
1441.8904597804255,289.1795959472656,0.4895716905593872,1026.0,90.0,182,0
1441.911293609068,289.34124755859375,0.4897618889808655,1026.0,90.0,183,0
1441.9321274363128,289.5501708984375,0.48984411358833313,1026.0,90.0,184,0
1441.952961263092,289.112548828125,0.48975199460983276,1026.0,90.0,185,0
1441.9737950884746,288.5513610839844,0.48944804072380066,1026.0,90.0,186,0
1441.994628912925,290.1390075683594,0.4903280735015869,1026.0,90.0,187,0
1442.015462736445,290.0731201171875,0.49019744992256165,1026.0,90.0,188,0
1442.036296559033,289.3744812011719,0.48975077271461487,1026.0,90.0,189,0
1442.0571303806905,289.8939208984375,0.49019137024879456,1026.0,90.0,190,0
1442.077964201417,290.0818786621094,0.49076882004737854,1026.0,90.0,191,0
1442.0987980212105,289.797607421875,0.49010348320007324,1026.0,90.0,192,0
1442.119631840074,290.2912292480469,0.49066781997680664,1026.0,90.0,193,0
1442.1404656580055,289.844482421875,0.49006757140159607,1026.0,90.0,194,0
1442.1612994750049,289.787841796875,0.49002158641815186,1026.0,90.0,195,0
1442.1821332906084,290.30645751953125,0.49072372913360596,1026.0,90.0,196,0
1442.2029671057462,290.92156982421875,0.4908830225467682,1026.0,90.0,197,0
1442.223800919953,289.4139099121094,0.48985329270362854,1026.0,90.0,198,0
1442.2446347327636,289.75262451171875,0.4900801479816437,1026.0,90.0,199,0
1442.265468545107,290.4624938964844,0.49081847071647644,1026.0,90.0,200,0
1442.2863023560535,290.2709045410156,0.49042996764183044,1026.0,90.0,201,0
1442.3071361665352,289.0533142089844,0.4896162152290344,1026.0,90.0,202,0
1442.3279699756185,290.3716735839844,0.4906612038612366,1026.0,90.0,203,0
1442.348803783771,289.6702880859375,0.4899041950702667,1026.0,90.0,204,0
1442.3696375914585,289.9461364746094,0.4901033937931061,1026.0,90.0,205,0
1442.390471397749,290.1422119140625,0.49041417241096497,1026.0,90.0,206,0
1442.4113052031084,290.3303527832031,0.49034109711647034,1026.0,90.0,207,0
1442.4321390075365,290.0220947265625,0.49013230204582214,1026.0,90.0,208,0
1442.452972811498,290.1112976074219,0.490202397108078,1026.0,90.0,209,0
1442.4738066140626,289.7806701660156,0.49010375142097473,1026.0,90.0,210,0
1442.4946404156958,289.07757568359375,0.48986977338790894,1026.0,90.0,211,0
1442.515474216398,290.2808837890625,0.49034929275512695,1026.0,90.0,212,0
1442.5363080161692,290.2023620605469,0.49043864011764526,1026.0,90.0,213,0
1442.5571418150084,290.7210388183594,0.4906196594238281,1026.0,90.0,214,0
1442.5779756129186,289.91265869140625,0.490214079618454,1026.0,90.0,215,0
1442.598809409895,290.9089050292969,0.49085143208503723,1026.0,90.0,216,0
1442.6196432059405,289.2405700683594,0.48974037170410156,1026.0,90.0,217,0
1442.640477001055,290.21661376953125,0.4903620481491089,1026.0,90.0,218,0
1442.6613107952376,290.50286865234375,0.490943968296051,1026.0,90.0,219,0
1442.6821445884889,290.2867736816406,0.4904286563396454,1026.0,90.0,220,0
1442.702978380809,290.0679931640625,0.49041903018951416,1026.0,90.0,221,0
1442.7238121721994,290.17919921875,0.4903087913990021,1026.0,90.0,222,0
1442.7446459626576,290.0679016113281,0.4903746247291565,1026.0,90.0,223,0
1442.7654797521836,289.676025390625,0.49011996388435364,1026.0,90.0,224,0
1442.7863135407783,288.8924255371094,0.4893431067466736,1026.0,90.0,225,0
1442.807147328442,289.68511962890625,0.4903911054134369,1026.0,90.0,226,0
1442.827981115175,287.8141784667969,0.48863252997398376,1026.0,90.0,227,0
1442.8488149009759,288.6261291503906,0.4893149137496948,1026.0,90.0,228,0
1442.8696486858455,288.8070373535156,0.4894300401210785,1026.0,90.0,229,0
1442.8904824697845,290.7911071777344,0.4911045432090759,1026.0,90.0,230,0
1442.911316252792,290.4520568847656,0.4905175268650055,1026.0,90.0,231,0
1442.9321500348674,290.1027526855469,0.49024027585983276,1026.0,90.0,232,0
1442.9529838160115,290.39776611328125,0.49057862162590027,1026.0,90.0,233,0
1442.9738175962254,290.4911193847656,0.49080872535705566,1026.0,90.0,234,0
1442.9946513755071,290.46527099609375,0.49062633514404297,1026.0,90.0,235,0
1443.0154851538575,290.6418151855469,0.4911099970340729,1026.0,90.0,236,0
1443.0363189312761,290.53607177734375,0.49088025093078613,1026.0,90.0,237,0
1443.0571527077645,290.49151611328125,0.4906531274318695,1026.0,90.0,238,0
1443.0779864833225,291.5538024902344,0.4914284348487854,1026.0,90.0,239,0
1443.098820257947,290.6512145996094,0.49061235785484314,1026.0,90.0,240,0
1443.119654031641,291.1540222167969,0.49117010831832886,1026.0,90.0,241,0
1443.1404878048688,290.67181396484375,0.49074628949165344,1026.0,90.0,242,0
1443.1613215767,290.746826171875,0.49118950963020325,1026.0,90.0,243,0
1443.1821553476007,290.3269348144531,0.4904356300830841,1026.0,90.0,244,0
1443.202989117569,290.7970275878906,0.490905225276947,1026.0,90.0,245,0
1443.2238228866065,290.48345947265625,0.49070411920547485,1026.0,90.0,246,0
1443.244656654714,290.6829528808594,0.4908996820449829,1026.0,90.0,247,0
1443.265490422354,290.95843505859375,0.4908689856529236,1026.0,90.0,248,0
1443.286324188597,290.646484375,0.49081170558929443,1026.0,90.0,249,0
1443.3071579539092,290.9953918457031,0.49106302857398987,1026.0,90.0,250,0
1443.3279917182895,290.3624572753906,0.491037517786026,1026.0,90.0,251,0
1443.3488254822046,290.4173583984375,0.4905540645122528,1026.0,90.0,252,0
1443.3696592447232,291.076171875,0.4909045398235321,1026.0,90.0,253,0
1443.3904930067756,290.6495666503906,0.49136489629745483,1026.0,90.0,254,0
1443.411326767431,290.3675537109375,0.4904158413410187,1026.0,90.0,255,0
1443.4321605271555,290.7669982910156,0.4906761050224304,1026.0,90.0,256,0
1443.452994286414,291.2126770019531,0.4911439120769501,1026.0,90.0,257,0
1443.4738280442748,291.1507873535156,0.4909714460372925,1026.0,90.0,258,0
1443.4946618016706,290.2154846191406,0.4903075397014618,1026.0,90.0,259,0
1443.5154955581356,290.2830810546875,0.49050867557525635,1026.0,90.0,260,0
1443.5363293132032,289.5291748046875,0.48982173204421997,1026.0,90.0,261,0
1443.5571630678055,291.0506591796875,0.49086877703666687,1026.0,90.0,262,0
1443.577996821477,291.1405334472656,0.4909858703613281,1026.0,90.0,263,0
