time,flux,flux_err,centroid_col,centroid_row,cadenceno,quality
1437.9954321559599,883.6384887695312,0.8633768558502197,322.52699427450796,467.0,0,0
1438.016266274708,860.593994140625,0.8524622321128845,322.52678097516787,467.0,1,0
1438.037100393457,844.751708984375,0.8456618189811707,322.5279348620547,466.9999831291149,2,0
1438.057934511741,826.4185791015625,0.8371657133102417,322.5282332580652,467.0000172451459,3,0
1438.078768629557,810.6971435546875,0.8322697877883911,322.5287816370188,466.9999824204278,4,0
1438.0996027469096,799.978271484375,0.8250039219856262,322.5301286488189,466.9999821848799,5,0
1438.120436863795,788.9666748046875,0.8200759291648865,322.53064976176717,466.9999819362345,6,0
1438.1412709797492,778.7919921875,0.8155214786529541,322.5311513301851,466.99998170023684,7,0
1438.162105094772,771.3624877929688,0.812194287776947,322.5312214675056,467.0,8,0
1438.1829392088644,763.1593017578125,0.8084050416946411,322.5300273073311,467.0,9,0
1438.2037733220254,752.5733642578125,0.8030787706375122,322.53197265372506,466.9999810626981,10,0
1438.2246074342552,744.6592407226562,0.8015046119689941,322.53244052270986,467.0,11,0
1438.2454415455536,737.1277465820312,0.7961044907569885,322.5320610467694,467.0,12,0
1438.266275654989,729.1038818359375,0.7921192646026611,322.53256008594934,467.0,13,0
1438.2871097639581,720.809326171875,0.788258969783783,322.5323025316391,467.00001977181546,14,0
1438.3079438710638,715.397705078125,0.7852499485015869,322.533031950309,466.99998007862075,15,0
1438.32877797724,708.2811279296875,0.7820454835891724,322.5326307223815,467.0000201215427,16,0
1438.349612081553,702.521728515625,0.7793360948562622,322.53372229263374,467.0000202865028,17,0
1438.3704461849356,695.7850341796875,0.7760588526725769,322.5342059057126,466.9999795170803,18,0
1438.391280286455,690.90234375,0.7739315629005432,322.53388186163926,467.0,19,0
1438.4121143865768,686.8472900390625,0.7720544338226318,322.5334287986126,467.000020749458,20,0
1438.432948485302,685.1686401367188,0.7707574963569641,322.5335542588802,467.0,21,0
1438.4537825821644,684.7138061523438,0.7708213925361633,322.5333489298026,467.0,22,0
1438.474616678096,684.583251953125,0.771024227142334,322.5323573145729,467.0,23,0
1438.495450771698,681.822021484375,0.7689777612686157,322.5326138137308,466.9999790976112,24,0
1438.516284864369,683.650634765625,0.7699267268180847,322.5329141807128,467.0,25,0
1438.537118955179,683.7142333984375,0.7701590657234192,322.5325695721129,466.9999791554596,26,0
1438.557953044126,684.494384765625,0.7703615427017212,322.53225201689634,467.0000208207829,27,0
1438.5787871316752,684.0001220703125,0.7701988816261292,322.53216855551403,466.99997916417186,28,0
1438.5996212173613,682.866943359375,0.7697288393974304,322.53148615510133,467.000020870404,29,0
1438.6204553011853,682.8728637695312,0.769314706325531,322.53202278760216,467.0,30,0
1438.6412893836118,684.6796875,0.7707289457321167,322.53268749322507,467.00002081514793,31,0
1438.6621234646425,685.703125,0.7709556818008423,322.53138115778455,467.0,32,0
1438.68295754381,683.1881103515625,0.7701789140701294,322.5313625835473,466.9999791394072,33,0
1438.7037916211145,685.4425048828125,0.7705909609794617,322.53130230831084,467.0,34,0
1438.7246256965575,683.5716552734375,0.7704625725746155,322.5307412614586,467.00002084888814,35,0
1438.7454597706023,684.5697021484375,0.7702309489250183,322.5301089783425,467.00002081849215,36,0
1438.7662938427839,682.26953125,0.7690429091453552,322.53034883467114,466.99997911132135,37,0
1438.78712791357,683.6566162109375,0.7698291540145874,322.52941510736065,467.0,38,0
1438.807961982493,685.8711547851562,0.7709299325942993,322.5298199400515,467.0,39,0
1438.8287960495531,683.7363891601562,0.7702723145484924,322.5297484801609,467.0,40,0
1438.8496301147507,682.1731567382812,0.7691713571548462,322.5298523046778,467.0,41,0
1438.8704641785516,686.2996826171875,0.771259069442749,322.52881322273066,466.99997923398575,42,0
1438.8912982409552,680.8038330078125,0.7684332132339478,322.5283031461438,467.00002093364975,43,0
1438.9121323010304,684.173095703125,0.7701683044433594,322.52828179011146,467.0000208305604,44,0
1438.932966359709,685.8973388671875,0.7727644443511963,322.52928448615387,467.0000207781955,45,0
1438.95380041699,683.662841796875,0.7702942490577698,322.52908317659325,467.0,46,0
1438.9746344724085,686.1710205078125,0.7711940407752991,322.52873603501655,467.0,47,0
1438.995468525965,686.345458984375,0.7714580297470093,322.5279561717814,466.99997923537074,48,0
1439.0163025776578,684.7229614257812,0.7707847952842712,322.5288641503887,467.0,49,0
1439.0371366279546,683.9598388671875,0.7700454592704773,322.5278569119859,466.9999791629447,50,0
1439.057970676855,684.5958862304688,0.7708181738853455,322.5276583818775,467.0,51,0
1439.0788047238912,686.7632446289062,0.7722427845001221,322.52714614534096,467.0,52,0
1439.0996387690655,686.0360717773438,0.7712840437889099,322.5264410234328,467.0,53,0
1439.1204728128423,686.1083984375,0.771587073802948,322.52639073230614,467.00002077180375,54,0
1439.1413068547558,686.149658203125,0.7710627317428589,322.5278015875642,466.99997922944533,55,0
1439.162140895274,686.5132446289062,0.7715002298355103,322.527250360136,467.0,56,0
1439.182974933929,684.53076171875,0.7706489562988281,322.52641366048965,467.0,57,0
1439.203808971187,685.74072265625,0.7713119387626648,322.52705182366526,467.000020782941,58,0
1439.2246430070486,686.595458984375,0.7713210582733154,322.52630773976415,467.0,59,0
1439.2454770410468,687.2125244140625,0.7714807391166687,322.52634850865377,467.00002073843024,60,0
1439.266311073182,687.5280151367188,0.7719095945358276,322.52628781373346,467.0,61,0
1439.287145103921,687.19189453125,0.7721251249313354,322.5259501506002,466.9999792609472,62,0
1439.3079791332625,685.27490234375,0.771237313747406,322.52664955042707,467.0000207970684,63,0
1439.3288131607414,686.20068359375,0.7711975574493408,322.52562144258434,467.0000207690102,64,0
1439.3496471868239,686.26611328125,0.7715386748313904,322.5256647139433,467.00002076703004,65,0
1439.3704812110436,685.1121826171875,0.7706252932548523,322.5259043349959,467.00002080200784,66,0
1439.3913152338664,687.0777587890625,0.7717507481575012,322.52501594107605,467.0000207424979,67,0
1439.4121492552922,686.18115234375,0.771054208278656,322.5262842640605,466.99997923039865,68,0
1439.432983274854,686.9741821289062,0.7714524865150452,322.5253602164653,467.0,69,0
1439.4538172934854,688.0048828125,0.7720028162002563,322.52432961163464,467.0000207145463,70,0
1439.474651309789,688.002197265625,0.7719762921333313,322.525363530617,467.0,71,0
1439.4954853251602,686.1241455078125,0.7710651755332947,322.5253412858012,467.0,72,0
1439.5163193386695,689.87841796875,0.7730464935302734,322.52578866895846,467.0,73,0
1439.5371533507825,687.73046875,0.7718871831893921,322.5249134789332,466.99997927718834,74,0
1439.5579873614984,688.40576171875,0.7721768617630005,322.5243766646215,467.0,75,0
1439.5788213703509,687.9345703125,0.7720771431922913,322.5250452927482,467.0,76,0
1439.599655377806,688.590576171875,0.7722930908203125,322.52477125242024,467.00002069692715,77,0
1439.6204893838644,689.4088134765625,0.7726956009864807,322.5243219863458,467.0,78,0
1439.641323388526,688.6424560546875,0.7724728584289551,322.5237278375654,467.0,79,0
1439.6621573913255,688.0262451171875,0.7720357179641724,322.52408210796034,467.0,80,0
1439.6829913931929,688.052734375,0.7721169590950012,322.52355324057646,467.00002071310564,81,0
1439.703825393198,688.6961669921875,0.772483229637146,322.5246352714799,466.99997930624613,82,0
1439.7246593918067,689.9298706054688,0.7727496027946472,322.52405215373824,467.0,83,0
1439.745493389018,688.829833984375,0.7724503874778748,322.5231716208031,467.0000206897383,84,0
1439.7663273848311,689.4049682617188,0.7731775045394897,322.52376520456323,467.0,85,0
1439.787161378783,689.075439453125,0.7724506258964539,322.52220466558697,467.0,86,0
1439.807995371803,688.69482421875,0.7725566625595093,322.5231243623475,467.0000206937942,87,0
1439.8288293629605,688.8387451171875,0.7723903059959412,322.5227604556256,467.0000206894706,88,0
1439.849663353187,688.7584228515625,0.7723801136016846,322.5222027010573,467.0,89,0
1439.8704973415506,690.1493530273438,0.7728365063667297,322.52278970766685,467.0,90,0
1439.8913313285175,690.0074462890625,0.7731393575668335,322.5226415872083,467.00002065442783,91,0
1439.912165314087,688.61474609375,0.772731602191925,322.5232893858892,467.0000206962007,92,0
1439.9329992987255,691.0931396484375,0.7736853957176208,322.52250909000986,466.9999793780199,93,0
1439.953833281501,689.44384765625,0.7726626396179199,322.5219064119843,467.0,94,0
1439.974667262879,688.6984252929688,0.7727215886116028,322.5216514004574,467.0,95,0
1439.9955012428604,689.3646240234375,0.7727893590927124,322.5219741379692,467.00002067368774,96,0
1440.016335221445,690.55419921875,0.7734939455986023,322.5216549968004,467.0000206380745,97,0
1440.0371691986334,690.321533203125,0.7730600833892822,322.5225233302105,467.0,98,0
1440.0580031744248,689.9161376953125,0.7731770873069763,322.52258929157523,467.0000206571614,99,0
1440.078837148818,690.423828125,0.7733141779899597,322.52164445525705,466.9999793580285,100,0
1440.0996711218145,688.903564453125,0.7726109623908997,322.5213901466785,467.0,101,0
1440.1205050938802,689.7481689453125,0.7728286981582642,322.52100296314416,467.0,102,0
1440.1413390640826,690.645263671875,0.7735260725021362,322.5216186035266,467.0000206353532,103,0
1440.1621730328889,689.899169921875,0.7733065485954285,322.5211733149269,467.0,104,0
1440.183007000763,690.8846435546875,0.7733617424964905,322.52198303911126,467.0,105,0
1440.2038409667755,690.2069091796875,0.7734388709068298,322.52061680085956,466.9999793515411,106,0
1440.224674931856,691.0294189453125,0.7732940912246704,322.52068482592824,467.0,107,0
1440.2455088955394,690.2293701171875,0.7734735012054443,322.521312583796,467.000020647787,108,0
1440.2663428578262,690.596435546875,0.7739426493644714,322.521256756236,467.0000206368123,109,0
1440.2871768187156,690.876953125,0.773505687713623,322.52126486660694,466.99997937156695,110,0
1440.308010778208,691.7056884765625,0.7748876810073853,322.5206683087286,467.00002060371804,111,0
1440.3288447363034,691.0073852539062,0.7736385464668274,322.5203672404587,467.0,112,0
1440.3496786930018,689.8367919921875,0.7733979821205139,322.52126043350876,467.00002065953737,113,0
1440.3705126487694,691.4918823242188,0.7745380997657776,322.51999668473263,467.0,114,0
1440.3913466031404,691.232421875,0.7738462090492249,322.52135132490935,467.0000206178248,115,0
1440.412180556114,690.24072265625,0.7729613780975342,322.5199976938526,467.00002064744734,116,0
1440.43301450769,691.20703125,0.7736857533454895,322.5203617550113,467.0,117,0
1440.4538484578688,690.8515625,0.7734901905059814,322.5193276085193,467.0,118,0
1440.4746824066515,691.3386840820312,0.7735777497291565,322.5196827144037,467.0,119,0
1440.4955163545023,689.760986328125,0.7728292346000671,322.51980352434697,467.00002066180787,120,0
1440.516350300956,690.4840087890625,0.7737699747085571,322.5199955537444,467.0,121,0
1440.5371842460136,691.349365234375,0.7736601233482361,322.5194218397912,467.0,122,0
1440.55801819014,691.9835815429688,0.774675726890564,322.51832553484866,467.0,123,0
1440.578852132403,691.774658203125,0.774462103843689,322.52040067633453,467.0,124,0
1440.599686073735,692.4772338867188,0.7741148471832275,322.51996695267314,467.0,125,0
1440.6205200136696,692.970458984375,0.7741720080375671,322.5191327388919,466.99997943388666,126,0
1440.641353952673,691.93017578125,0.7738209366798401,322.5190326292294,467.0,127,0
1440.662187889814,691.641357421875,0.7737126350402832,322.5196821755173,466.99997939436554,128,0
1440.6830218260234,692.75537109375,0.7743097543716431,322.5200044863025,467.0,129,0
1440.7038557613014,692.1514892578125,0.7740436792373657,322.5194088116534,467.0,130,0
1440.7246896947177,692.7816162109375,0.7742822170257568,322.5185424756227,467.0,131,0
1440.7455236272021,693.4340209960938,0.7747321724891663,322.51845043442944,467.0,132,0
1440.766357558289,693.63818359375,0.7745411992073059,322.51958006674784,466.9999794536845,133,0
1440.787191488445,691.1485595703125,0.773629367351532,322.51994038562043,467.0,134,0
1440.8080254167385,691.6954345703125,0.7736652493476868,322.5185437976242,467.0000206040235,135,0
1440.8288593441,692.6458740234375,0.7747644186019897,322.51815393657733,467.0000205757509,136,0
1440.849693270531,692.0869140625,0.7744947075843811,322.5196392552106,466.9999794076312,137,0
1440.8705271955646,692.8412475585938,0.7744489312171936,322.51873072228005,467.0,138,0
1440.8913611192015,692.3539428710938,0.7742906212806702,322.5179598902528,467.0,139,0
1440.912195041442,692.540771484375,0.7741967439651489,322.518414169969,467.0000205788736,140,0
1440.9330289627505,693.1951904296875,0.7746474146842957,322.5190449587094,466.99997944055417,141,0
1440.9538628826622,692.9659423828125,0.774238109588623,322.5187223753901,467.0,142,0
1440.9746968016411,692.3197021484375,0.7740198969841003,322.51936684814183,466.99997941455524,143,0
1440.9955307187583,693.333251953125,0.7743844985961914,322.51743978558346,467.0000205553519,144,0
1441.01636463541,692.2482299804688,0.7739383578300476,322.51723757130156,467.0,145,0
1441.0580324640575,689.8867797851562,0.7727180123329163,322.5178533686098,467.0,146,0
1441.0788663769845,690.1270751953125,0.7729442715644836,322.51877812074986,467.0000206508475,147,0
1441.141368107848,688.4056396484375,0.7730920910835266,322.5182394232456,467.0,148,0
1441.183035922059,690.661376953125,0.7731475830078125,322.51751900617506,467.0000206348718,149,0
1441.2038698275346,688.9849853515625,0.7724519371986389,322.5178038292644,466.99997931492084,150,0
1441.22470373208,692.515625,0.7741906046867371,322.5177811449426,467.0,151,0
1441.2455376347625,692.7538452148438,0.7742059826850891,322.5180703147529,467.0,152,0
1441.2872054373324,690.72705078125,0.7733339667320251,322.5179172301321,466.99997936709013,153,0
1441.308039336755,688.1002197265625,0.7723734974861145,322.5168347786565,466.99997928832374,154,0
1441.3288732352455,690.5439453125,0.7734787464141846,322.51688860365397,467.00002063838093,155,0
1441.349707132339,692.9196166992188,0.7746003270149231,322.51736951120847,467.0,156,0
1441.370541028502,690.2437744140625,0.7730834484100342,322.5172203813014,467.0,157,0
1441.3913749232684,692.4759521484375,0.7742986083030701,322.51695099901053,467.00002058079986,158,0
1441.4122088166375,690.603271484375,0.7732260227203369,322.5171998394322,467.0,159,0
1441.433042709075,691.089599609375,0.7740536332130432,322.51690017462096,466.99997937791426,160,0
1441.453876600581,689.7022094726562,0.7728408575057983,322.51748500740837,467.0,161,0
1441.47471049069,690.8712158203125,0.7735278010368347,322.51742215948536,466.9999793713956,162,0
1441.495544379402,689.4501953125,0.7726808190345764,322.51655340780485,467.0,163,0
1441.516378267183,691.5133056640625,0.7736272215843201,322.51720063824865,467.00002060945013,164,0
1441.5372121535665,693.3358154296875,0.7766061425209045,322.5166043934239,466.9999794447241,165,0
1441.5580460390195,692.5369873046875,0.7757381796836853,322.51653920327686,467.0,166,0
1441.5788799235415,690.835693359375,0.773419201374054,322.5172635398632,467.0000206296651,167,0
1441.599713806665,692.742919921875,0.7745464444160461,322.51618186063314,467.0000205728685,168,0
1441.6205476883924,691.5250244140625,0.7740455269813538,322.5166837511847,467.0,169,0
1441.641381569188,693.3901977539062,0.7743242979049683,322.51572082403027,467.0,170,0
1441.6622154490524,694.3546142578125,0.7749317288398743,322.51612900532035,467.0,171,0
1441.6830493275202,693.295166015625,0.7750207185745239,322.5157184450532,467.0,172,0
1441.7038832050566,693.4273071289062,0.7746587991714478,322.5163446574293,467.0,173,0
1441.7247170811966,696.1243896484375,0.7760730385780334,322.5159984365166,467.0,174,0
1441.745550956405,693.9351806640625,0.7752256393432617,322.5160329441202,467.0,175,0
1441.7663848302159,695.2020263671875,0.7756102085113525,322.5153216056975,467.00002050009704,176,0
1441.7872187030955,695.9722290039062,0.7758446931838989,322.5159434399015,467.0,177,0
1441.8080525745781,692.7484130859375,0.7741507887840271,322.5156209388731,467.0,178,0
1441.828886445129,695.068115234375,0.7775903344154358,322.51628232043635,467.0,179,0
1441.8497203142829,696.4296875,0.7765513062477112,322.5159254740277,466.9999795360404,180,0
1441.8705541825066,696.5701904296875,0.7782090306282043,322.5156371384415,467.0,181,0
1441.8913880497985,693.2951049804688,0.7750256061553955,322.5159918872762,467.0,182,0
1441.9122219156934,694.1563110351562,0.7748808264732361,322.5152492421343,467.0,183,0
1441.933055780657,695.2049560546875,0.775267481803894,322.5156835177632,467.00002050001063,184,0
1441.9538896442236,694.4761962890625,0.7749612331390381,322.51529130279414,467.00002052152263,185,0
1441.9747235068594,693.5220947265625,0.7747008800506592,322.51570762530554,466.99997945024523,186,0
1441.995557368563,695.5147705078125,0.7760466933250427,322.51561150486947,467.00002049087897,187,0
1442.0163912288695,693.54248046875,0.7755297422409058,322.515371160785,467.0,188,0
1442.0372250882451,694.2901000976562,0.7750737071037292,322.5141426794262,467.0,189,0
1442.058058946224,695.2031860351562,0.7765882015228271,322.51440812016705,467.0,190,0
1442.078892803272,696.09033203125,0.7758978009223938,322.51575261136946,467.0000204739361,191,0
1442.0997266589216,695.2032470703125,0.775629460811615,322.5143931499068,467.000020500061,192,0
1442.120560513641,695.5400390625,0.7758874297142029,322.5147442532851,467.00002049013455,193,0
1442.141394367428,695.279052734375,0.7752401828765869,322.51516049051514,467.0,194,0
1442.1622282198186,695.728759765625,0.7758933305740356,322.51403048736626,467.00002048457645,195,0
1442.1830620712776,695.0224609375,0.7756045460700989,322.5141982066255,467.0000205053934,196,0
1442.2038959218048,695.4666748046875,0.775703489780426,322.5150624519177,467.0,197,0
1442.224729770937,694.7403564453125,0.775580108165741,322.5143221783796,467.0,198,0
1442.2455636191376,695.50048828125,0.7758434414863586,322.51438046069006,466.9999795087002,199,0
1442.26639746594,695.8203125,0.7757614254951477,322.5147069117358,467.0,200,0
1442.2872313118114,696.05712890625,0.7758440375328064,322.5138653303169,466.99997952508727,201,0
1442.3080651567511,697.482421875,0.7774143815040588,322.5143482611149,467.0,202,0
1442.3288990002945,696.8671875,0.7762476205825806,322.5147599661291,467.0000204511121,203,0
1442.3497328429062,697.2957763671875,0.776354968547821,322.514671678238,467.0,204,0
1442.370566684586,697.6246337890625,0.7766450047492981,322.5152296410409,467.0,205,0
1442.39140052487,695.9512939453125,0.7757905721664429,322.5135372909685,467.0,206,0
1442.4122343642225,694.109130859375,0.7749941945075989,322.5140776030567,467.000020532375,207,0
1442.433068202178,696.773193359375,0.7764047980308533,322.5147222320525,467.0,208,0
1442.4539020396678,696.6197509765625,0.7759388089179993,322.514145718662,467.0000204583763,209,0
1442.4747358752945,697.6143798828125,0.7765564322471619,322.5137868716575,466.9999795707924,210,0
1442.4955697104551,695.7607421875,0.7771350741386414,322.5137280706679,467.00002048363484,211,0
1442.516403544219,697.2863159179688,0.7763375043869019,322.5143697591607,467.0,212,0
1442.537237377052,697.6390991210938,0.7768445611000061,322.5147525148251,467.0,213,0
1442.558071208488,696.8379516601562,0.7762024402618408,322.514403748868,467.0,214,0
