time,flux,flux_err,centroid_col,centroid_row,cadenceno,quality
1437.9947960369382,2616.22119140625,1.4347357749938965,1444.4511061080202,982.5344898330932,0,0
1438.015629612259,2450.287109375,1.390264630317688,1444.4480717940419,982.5369179323294,1,0
1438.0364631880475,2311.89111328125,1.3525676727294922,1444.4446314042148,982.5391407165273,2,0
1438.057296763836,2183.8056640625,1.316671371459961,1444.4424860853173,982.5413521893224,3,0
1438.0781303391568,2047.543212890625,1.2756866216659546,1444.4383960353114,982.5434529096358,4,0
1438.0989639140134,1927.6805419921875,1.239903211593628,1444.4343114413214,982.5458504920255,5,0
1438.11979748887,1829.949951171875,1.2098877429962158,1444.4312905119423,982.5482250958078,6,0
1438.1406310632601,1747.327392578125,1.1829546689987183,1444.428030783061,982.5505878956045,7,0
1438.161464637184,1671.1075439453125,1.1584892272949219,1444.4252515739372,982.5515424063309,8,0
1438.1822982101776,1604.159423828125,1.1364320516586304,1444.4221690377965,982.5531124874194,9,0
1438.2031317827064,1536.0433349609375,1.1134119033813477,1444.4190909443469,982.555218549364,10,0
1438.223965354303,1468.21826171875,1.0902799367904663,1444.4154918660713,982.5577979569399,11,0
1438.244798925434,1405.65673828125,1.0684365034103394,1444.4118982270297,982.559774544643,12,0
1438.265632495634,1345.8984375,1.0471683740615845,1444.4087655206972,982.561810264294,13,0
1438.2864660649016,1303.888427734375,1.0317835807800293,1444.4058173283338,982.5632992942722,14,0
1438.307299632772,1270.041259765625,1.0189980268478394,1444.4026930695534,982.5647946671039,15,0
1438.328133200178,1238.775390625,1.00784170627594,1444.401440220326,982.5656071492764,16,0
1438.348966766187,1210.58740234375,0.9969729781150818,1444.3986794140685,982.5663315765082,17,0
1438.3698003312645,1179.5703125,0.986010730266571,1444.3968355455427,982.5675674011492,18,0
1438.390633895411,1154.03857421875,0.9762789011001587,1444.3943563433822,982.5697638928085,19,0
1438.4114674581601,1136.6246337890625,0.9683837294578552,1444.3929015170822,982.569088234754,20,0
1438.4323010199769,1129.1431884765625,0.9658504724502563,1444.3919943110989,982.5701700556792,21,0
1438.453134580398,1129.4459228515625,0.9660161733627319,1444.3923405425455,982.5707377560965,22,0
1438.4739681394221,1128.195556640625,0.9653522372245789,1444.3920479431363,982.5689210514015,23,0
1438.494801697514,1128.087890625,0.9649592638015747,1444.3929025755695,982.56815091195,24,0
1438.515635254208,1132.3984375,0.9668927192687988,1444.3925496258978,982.5678993873623,25,0
1438.5364688095074,1128.053466796875,0.9652116894721985,1444.3937506614534,982.5676316473496,26,0
1438.5573023638754,1130.29833984375,0.9659202098846436,1444.3936728676058,982.5674045813316,27,0
1438.5781359163793,1129.2393798828125,0.9654085040092468,1444.393471436143,982.5674280913429,28,0
1438.5989694679524,1130.8880615234375,0.9666374325752258,1444.3935009744464,982.5664123103527,29,0
1438.619803018129,1130.306884765625,0.9665346145629883,1444.393332358836,982.5664204170777,30,0
1438.6406365669081,1131.647705078125,0.9664385914802551,1444.3943278611478,982.5668618664795,31,0
1438.66147011429,1132.9722900390625,0.9667268991470337,1444.394123932303,982.5657135081916,32,0
1438.682303660275,1130.5218505859375,0.9658182859420776,1444.3940105315328,982.565387351147,33,0
1438.7031372048637,1133.2281494140625,0.9669999480247498,1444.394821606404,982.5653415153168,34,0
1438.7239707485214,1133.3096923828125,0.9670222997665405,1444.3938314304507,982.5653139117928,35,0
1438.744804290316,1133.13330078125,0.9667093753814697,1444.3943348666994,982.5653034490879,36,0
1438.765637830712,1133.57568359375,0.966961681842804,1444.394505541633,982.5641884099203,37,0
1438.7864713701786,1133.9364013671875,0.9672320485115051,1444.3944114793653,982.5645388244659,38,0
1438.807304907782,1133.648681640625,0.9672192335128784,1444.3951574538191,982.5649256610153,39,0
1438.828138444453,1132.5343017578125,0.9666934013366699,1444.3953741845653,982.5638219100359,40,0
1438.8489719792624,1133.2896728515625,0.9669206738471985,1444.395277907722,982.5645406880873,41,0
1438.8698055131415,1134.0577392578125,0.9672617316246033,1444.3957762996731,982.5642074240375,42,0
1438.890639045157,1132.794921875,0.9669784307479858,1444.396100327419,982.5621797768198,43,0
1438.9114725762415,1133.9576416015625,0.9675222039222717,1444.3962298322137,982.5634575247802,44,0
1438.9323061054629,1133.892822265625,0.9672926664352417,1444.3964197667096,982.5625585648385,45,0
1438.953139633752,1134.9923095703125,0.9674703478813171,1444.395838161955,982.5629659205341,46,0
1438.9739731601794,1136.19970703125,0.9679804444313049,1444.3958406480278,982.562643093152,47,0
1438.994806685676,1135.606689453125,0.9682508707046509,1444.3959329170827,982.5628040721754,48,0
1439.0156402097746,1135.7069091796875,0.9682515263557434,1444.3966024820634,982.5623277636204,49,0
1439.036473732012,1134.29638671875,0.967384934425354,1444.3962260480776,982.5618786963972,50,0
1439.057307253318,1133.855224609375,0.9679312705993652,1444.3970210017892,982.5612893417504,51,0
1439.0781407732252,1130.262451171875,0.965869128704071,1444.3965494523773,982.5618637752441,52,0
1439.0989742917363,1126.451416015625,0.9642173051834106,1444.3970000455142,982.5619748393186,53,0
1439.119807808851,1126.4727783203125,0.9639947414398193,1444.3970938923815,982.5609564545763,54,0
1439.1406413245682,1126.7877197265625,0.9644381999969482,1444.397079063814,982.5616529370375,55,0
1439.161474838888,1126.124755859375,0.9639565348625183,1444.3969438134443,982.5608284940598,56,0
1439.1823083518116,1129.7264404296875,0.9664363861083984,1444.396404296554,982.5613899379333,57,0
1439.2031418633374,1136.2037353515625,0.9678236246109009,1444.3958536680225,982.5616527720194,58,0
1439.2239753739336,1137.0516357421875,0.9683902859687805,1444.3974494904683,982.5609960576408,59,0
1439.244808882666,1135.30859375,0.9679862856864929,1444.3966107466006,982.5613849327473,60,0
1439.265642390466,1135.4296875,0.9677385687828064,1444.3970723484751,982.5613538602624,61,0
1439.2864758968703,1135.26953125,0.9682826995849609,1444.3970660135,982.5607251050739,62,0
1439.3073094018773,1135.78466796875,0.9687533974647522,1444.396991250757,982.560284409504,63,0
1439.3281429054875,1136.32666015625,0.9688080549240112,1444.3979186388174,982.5599419602208,64,0
1439.348976407701,1137.4815673828125,0.9687976837158203,1444.3968897080342,982.5607473169047,65,0
1439.3698099085175,1137.490966796875,0.9688625335693359,1444.3974068947578,982.5604014471054,66,0
1439.3906434084024,1137.1566162109375,0.9686377048492432,1444.3971194729866,982.5602125367946,67,0
1439.411476906891,1136.9732666015625,0.9685919284820557,1444.3973809960935,982.5593482478419,68,0
1439.4323104039809,1137.28466796875,0.9685365557670593,1444.3974371087374,982.5601420405391,69,0
1439.4531438996746,1139.6875,0.9693425297737122,1444.3979215044044,982.5598011850493,70,0
1439.4739773939718,1137.37158203125,0.9684985876083374,1444.3977656383554,982.5592770067191,71,0
1439.4948108873364,1136.5244140625,0.9680543541908264,1444.3976256464807,982.5604936969464,72,0
1439.515644379305,1137.37646484375,0.9686248302459717,1444.3981837908864,982.5587734191171,73,0
1439.5364778698774,1136.7138671875,0.9681966304779053,1444.398171343627,982.5598847879501,74,0
1439.5573113590526,1139.1907958984375,0.9690185785293579,1444.3983182755157,982.5597013116128,75,0
1439.5781448472958,1137.2178955078125,0.96884685754776,1444.3984573623115,982.5588178955783,76,0
1439.598978334142,1138.07861328125,0.9692991971969604,1444.3979269591575,982.5591759053281,77,0
1439.619811819591,1136.821044921875,0.9688261151313782,1444.397668143696,982.5595427247848,78,0
1439.640645304109,1137.26220703125,0.9683876633644104,1444.3989264636366,982.5589470379925,79,0
1439.6614787867645,1139.0819091796875,0.9697512984275818,1444.398713172433,982.5591940171844,80,0
1439.6823122689539,1137.227783203125,0.9680252075195312,1444.3983382656177,982.5591274230719,81,0
1439.7031457492815,1138.4466552734375,0.9688633680343628,1444.3982919809932,982.5592491090916,82,0
1439.7239792286775,1139.015625,0.9689604043960571,1444.3982721875557,982.558460147001,83,0
1439.7448127066764,1140.495361328125,0.9697125554084778,1444.398279026362,982.5590453987814,84,0
1439.7656461832776,1136.8958740234375,0.9688004851341248,1444.399089781543,982.5586004988913,85,0
1439.7864796589479,1137.0777587890625,0.9684924483299255,1444.3983742087041,982.5590203550404,86,0
1439.8073131336869,1137.099365234375,0.9682723879814148,1444.39848467298,982.5591537595122,87,0
1439.8281466065635,1137.9334716796875,0.9684176445007324,1444.3983698262307,982.5592893992899,88,0
1439.8489800785092,1138.8770751953125,0.969846248626709,1444.3987223812903,982.5585298548793,89,0
1439.869813549057,1138.567138671875,0.9687579274177551,1444.3983781017807,982.5587507003753,90,0
1439.8906470186744,1139.2276611328125,0.9689316153526306,1444.3987453245645,982.5578389830736,91,0
1439.9114804868946,1138.6317138671875,0.9690039753913879,1444.3981932092158,982.5581447662552,92,0
1439.932313954183,1138.2044677734375,0.968421995639801,1444.3981314665937,982.5578561354141,93,0
1439.9531474200749,1140.2222900390625,0.9693360328674316,1444.399058927697,982.5577799246545,94,0
1439.9739808845688,1139.8074951171875,0.968977689743042,1444.399245049668,982.5582006522654,95,0
1439.9948143481315,1139.442626953125,0.969438910484314,1444.3992113534,982.5584351726329,96,0
1440.015647810764,1137.9530029296875,0.970628023147583,1444.3996860394604,982.5580423119827,97,0
1440.0364812719995,1139.21728515625,0.9689266085624695,1444.398653295677,982.5579509621678,98,0
1440.057314731838,1138.7891845703125,0.9689754247665405,1444.3984267781802,982.5587104233795,99,0
1440.0781481907438,1139.8836669921875,0.9692448377609253,1444.3990058098548,982.5576904943678,100,0
1440.0989816482534,1137.2711181640625,0.968268871307373,1444.3989467907832,982.5585346065191,101,0
1440.119815104832,1139.4759521484375,0.9689538478851318,1444.399062151866,982.5575926926387,102,0
1440.1406485600135,1138.715576171875,0.9689323902130127,1444.3998458249566,982.5575943938901,103,0
1440.161482014264,1138.3492431640625,0.9685930013656616,1444.3986453011933,982.5579627541337,104,0
1440.1823154671165,1139.8953857421875,0.9692305326461792,1444.3991851513965,982.5577133537795,105,0
1440.203148919039,1139.8717041015625,0.9692793488502502,1444.399852484448,982.5579474897216,106,0
1440.223982369564,1140.0291748046875,0.9691928625106812,1444.3992585381984,982.5579288849409,107,0
1440.2448158191573,1140.5030517578125,0.9695368409156799,1444.399161334779,982.5581358575258,108,0
1440.265649267354,1138.4219970703125,0.9694209098815918,1444.3994889449905,982.557805070967,109,0
1440.2864827146186,1138.3515625,0.9688658714294434,1444.3995674678426,982.5578015165287,110,0
1440.3073161609525,1139.927978515625,0.9697144031524658,1444.3996758641035,982.557768017485,111,0
1440.3281496058894,1139.5501708984375,0.9693590402603149,1444.3991437913187,982.558403560397,112,0
1440.3489830498952,1140.0467529296875,0.9698199033737183,1444.3985648947887,982.5574816904717,113,0
1440.3698164925036,1140.5450439453125,0.9694057703018188,1444.3995249961336,982.5566428832501,114,0
1440.3906499341815,1140.968994140625,0.9694038033485413,1444.3991664061502,982.5569605345905,115,0
1440.4114833744616,1140.34814453125,0.9699575901031494,1444.3995151273875,982.5576137540662,116,0
1440.4323168138105,1139.6849365234375,0.9694517850875854,1444.4000043941394,982.5568595355611,117,0
1440.4531502522282,1139.6468505859375,0.9702684879302979,1444.4000675156253,982.5571444802783,118,0
1440.4739836892486,1139.9495849609375,0.9697587490081787,1444.3997947280855,982.5572258139372,119,0
1440.4948171253382,1140.58251953125,0.9696103930473328,1444.3995286184675,982.5573111696583,120,0
1440.515650560029,1139.4473876953125,0.9692225456237793,1444.4002946160274,982.5571727628043,121,0
1440.536483993791,1139.6300048828125,0.9690213799476624,1444.4001714653912,982.5566509269805,122,0
1440.557317426621,1141.073974609375,0.9696396589279175,1444.3998047028363,982.5569276803287,123,0
1440.5781508585196,1140.7984619140625,0.9694080948829651,1444.3998774506788,982.5566458027947,124,0
1440.5989842890208,1141.146240234375,0.9696124792098999,1444.4004138599976,982.5555714987906,125,0
1440.6198177181254,1140.374267578125,0.9695471525192261,1444.4004560050978,982.5571124982953,126,0
1440.640651146764,1139.7130126953125,0.9695202112197876,1444.4002667372424,982.5568984067847,127,0
1440.6614845740055,1139.222412109375,0.9690456390380859,1444.4001537501701,982.5565039308825,128,0
1440.68231799985,1140.5997314453125,0.9697508811950684,1444.4005709458675,982.5566772508766,129,0
1440.7031514252294,1140.7811279296875,0.9696962237358093,1444.4006450609982,982.5564511771131,130,0
1440.723984849212,1140.8975830078125,0.9694604277610779,1444.4002583447257,982.5565078197815,131,0
1440.7448182717972,1139.0772705078125,0.9708877801895142,1444.3999932994482,982.5567609746787,132,0
1440.7656516939164,1140.702392578125,0.9694905877113342,1444.40075884727,982.5564504318735,133,0
1440.7864851146392,1139.895751953125,0.9693078398704529,1444.4004208571491,982.5564210251717,134,0
1440.8073185344306,1139.5106201171875,0.9690758585929871,1444.4003939101033,982.5564137683317,135,0
1440.828151952824,1139.337890625,0.9690648317337036,1444.4001855930965,982.5560192146403,136,0
1440.8489853707524,1140.911865234375,0.9697362184524536,1444.400319964478,982.5560964440664,137,0
1440.8698187872842,1140.1231689453125,0.9693257808685303,1444.4001257402524,982.5553062782652,138,0
1440.8906522024195,1139.5894775390625,0.9691400527954102,1444.4003301718587,982.5560201968461,139,0
1440.911485617089,1141.0068359375,0.9703882336616516,1444.4006736748443,982.555677516666,140,0
1440.9323190303605,1140.74072265625,0.9705820083618164,1444.4007513872737,982.5563025738613,141,0
1440.9531524427011,1141.1851806640625,0.9706529378890991,1444.4002983899495,982.5563092863532,142,0
1440.973985853644,1139.6739501953125,0.9695748090744019,1444.3996549616659,982.5564102490637,143,0
1440.9948192641225,1142.1533203125,0.9700492024421692,1444.4010254613895,982.5563234514542,144,0
1441.015652673203,1138.7320556640625,0.968847930431366,1444.400590749224,982.5564712730127,145,0
1441.0573194881053,1139.9093017578125,0.9695380926132202,1444.401034569315,982.5560437938531,146,0
1441.0781528943935,1138.740966796875,0.9689592123031616,1444.4001371968639,982.5557704287025,147,0
1441.1406531062694,1138.5369873046875,0.969089925289154,1444.4007441651268,982.5545848725648,148,0
1441.182319909064,1140.830322265625,0.9696032404899597,1444.401527290892,982.555711958742,149,0
1441.203153308832,1138.6097412109375,0.9697718024253845,1444.4016985918292,982.5551218703937,150,0
1441.223986707669,1139.868408203125,0.9694689512252808,1444.4012278799657,982.5561333518316,151,0
1441.2448201051095,1142.830810546875,0.9705873131752014,1444.4015605256102,982.554813051494,152,0
1441.2864868976594,1139.2740478515625,0.9691736102104187,1444.4013787386023,982.5547564736617,153,0
1441.3073202923051,1138.722900390625,0.9689184427261353,1444.4013156357273,982.5552496146721,154,0
1441.3281536860195,1140.4732666015625,0.9703176617622375,1444.4005062959468,982.5552316355868,155,0
1441.348987078802,1140.5919189453125,0.9694585800170898,1444.4015735446737,982.5552031742359,156,0
1441.3698204706534,1139.128173828125,0.968898355960846,1444.4015092499383,982.555301608875,157,0
1441.3906538611086,1142.4559326171875,0.9702993631362915,1444.40120878579,982.5544607254473,158,0
1441.411487251098,1142.5828857421875,0.9703217148780823,1444.4017775059485,982.5543509754607,159,0
1441.4323206396898,1140.511474609375,0.9693210124969482,1444.4014645079187,982.5553300868986,160,0
1441.4531540273506,1139.1077880859375,0.9687730073928833,1444.4012614408657,982.5539753300918,161,0
1441.473987413614,1139.414306640625,0.9690104722976685,1444.401873277415,982.5556477326854,162,0
1441.4948207994116,1140.11279296875,0.9693078994750977,1444.4008083306674,982.5538325001253,163,0
1441.515654184278,1139.73876953125,0.9695177674293518,1444.4022212249672,982.5541526137603,164,0
1441.5364875677474,1140.6983642578125,0.9694479703903198,1444.401755101689,982.5550080067624,165,0
1441.5573209502863,1139.178955078125,0.9692906141281128,1444.4017508980241,982.5558087661219,166,0
1441.578154331894,1131.947509765625,0.9660243988037109,1444.4027301450224,982.5541678160716,167,0
1441.5989877125699,1133.1446533203125,0.9665580987930298,1444.401855029899,982.5545095829121,168,0
1441.619821092314,1131.85498046875,0.9659926891326904,1444.4026396746344,982.5536468945303,169,0
1441.6406544711272,1133.597900390625,0.9668581485748291,1444.4024772453022,982.5550414588636,170,0
1441.6614878485425,1133.4100341796875,0.9667741060256958,1444.4026325822747,982.5538611233621,171,0
1441.682321225493,1136.9647216796875,0.9682413339614868,1444.4023890475805,982.5554075632259,172,0
1441.7031546010467,1140.498779296875,0.969658613204956,1444.4005933180106,982.5537190491756,173,0
1441.723987975669,1140.5146484375,0.9693650007247925,1444.4007420024368,982.5542294278042,174,0
1441.7448213493603,1143.0869140625,0.970443069934845,1444.4027791497333,982.5547099592831,175,0
1441.7656547221195,1142.8822021484375,0.9706078767776489,1444.4025557140722,982.5556095461133,176,0
1441.7864880939474,1140.876953125,0.9696329236030579,1444.4022265816925,982.5540721340021,177,0
1441.8073214648439,1140.8740234375,0.9698119163513184,1444.402388471481,982.5553506886339,178,0
1441.8281548348095,1140.546630859375,0.969322919845581,1444.4022557922965,982.5536853024362,179,0
1441.848988203378,1142.4052734375,0.9711981415748596,1444.4025754590652,982.5539436441453,180,0
1441.8698215714805,1143.3173828125,0.9705348610877991,1444.4022443918764,982.5542393591284,181,0
1441.8906549381875,1142.137451171875,0.9700589776039124,1444.4024149271247,982.5551225820001,182,0
1441.911488303962,1141.3857421875,0.9696266651153564,1444.402342583585,982.5541538969301,183,0
1441.932321669271,1142.46875,0.9703982472419739,1444.4021751040484,982.5541077970712,184,0
1441.9531550331826,1140.62158203125,0.9693386554718018,1444.4024948116282,982.5542787638918,185,0
1441.9739883961633,1142.4219970703125,0.9704548716545105,1444.4025613248862,982.5542861439079,186,0
1441.994821758213,1143.216064453125,0.9703686237335205,1444.4023443881654,982.5548901062291,187,0
1442.0156551193304,1140.71826171875,0.9707775712013245,1444.402390351966,982.5543454066898,188,0
1442.0364884795172,1141.1500244140625,0.9698131084442139,1444.4026360511925,982.553872262457,189,0
1442.0573218383074,1140.8153076171875,0.9694856405258179,1444.4030787377192,982.5540855688782,190,0
1442.078155196632,1141.1834716796875,0.9697361588478088,1444.402560978545,982.5543051748529,191,0
1442.0989885540243,1144.282470703125,0.9710453152656555,1444.4022926751784,982.5534786944944,192,0
1442.1198219100202,1142.1043701171875,0.9702357053756714,1444.4031215694242,982.5546072442003,193,0
1442.1406552655494,1142.575439453125,0.9713895916938782,1444.4021292437867,982.5533134399461,194,0
1442.161488619683,1142.951171875,0.9703006148338318,1444.4026016719326,982.5542075151532,195,0
1442.1823219733496,1142.9862060546875,0.97135990858078,1444.4027342184304,982.5546139744106,196,0
1442.2031553256202,1142.1209716796875,0.9702222347259521,1444.4021908071124,982.554748962058,197,0
1442.2239886774255,1142.57763671875,0.9700872898101807,1444.402891371428,982.55388746961,198,0
1442.2448220278345,1142.013427734375,0.9709112644195557,1444.4027917804249,982.5539534950714,199,0
