time,flux,flux_err,centroid_col,centroid_row,cadenceno,quality
1491.661149617617,1367.19677734375,1.0317299365997314,995.0000444193414,1721.4984888941824,0,0
1491.681983618876,1350.648681640625,1.0257980823516846,995.0000449635655,1721.4997830451478,1,0
1491.7028176206,1335.133544921875,1.0203497409820557,995.0000454860719,1721.501096100047,2,0
1491.7236516218586,1319.45654296875,1.0142115354537964,995.0000460265105,1721.5019831643813,3,0
1491.7444856231168,1305.97412109375,1.0095086097717285,995.0,1721.5023529846128,4,0
1491.765319624376,1290.165771484375,1.0039302110671997,995.0,1721.5028109937725,5,0
1491.786153625169,1276.072021484375,0.9982010126113892,995.0,1721.5034980354103,6,0
1491.806987625962,1267.572021484375,0.9950619339942932,995.0,1721.5032842511762,7,0
1491.8278216267545,1254.024658203125,0.9897111058235168,995.0000484280592,1721.5042852748525,8,0
1491.848655626616,1242.94970703125,0.9857763648033142,995.0,1721.5039967614211,9,0
1491.8694896264778,1235.8104248046875,0.9828974604606628,995.0,1721.5037796237543,10,0
1491.8903236258734,1227.158203125,0.9797046184539795,994.9999505116941,1721.504165025346,11,0
1491.9111576252694,1222.2574462890625,0.9777061343193054,995.0,1721.5051670707687,12,0
1491.9319916237341,1217.5743408203125,0.9759278893470764,995.0,1721.5044932165633,13,0
1491.9528256217332,1212.2991943359375,0.9739024043083191,995.0,1721.505196475133,14,0
1491.973659619732,1209.962158203125,0.9731597900390625,995.0,1721.505200257062,15,0
1491.9944936168004,1210.51953125,0.9733033180236816,995.000050168526,1721.5048258592483,16,0
1492.015327613403,1210.39501953125,0.9732741713523865,994.9999498263134,1721.505567463892,17,0
1492.036161609539,1208.798828125,0.9727229475975037,995.0000502399399,1721.5041357821476,18,0
1492.056995604744,1207.6766357421875,0.9721668362617493,995.0,1721.5049692786633,19,0
1492.0778295994835,1209.520751953125,0.9730809330940247,994.9999497900467,1721.505340270078,20,0
1492.098663593757,1208.6220703125,0.9730737209320068,995.0,1721.5056593595496,21,0
1492.119497587565,1209.16064453125,0.972769558429718,995.0,1721.5047412311856,22,0
1492.140331580442,1207.04052734375,0.9719898700714111,995.0,1721.5049748808565,23,0
1492.1611655723868,1209.143798828125,0.9728081226348877,995.0,1721.5052006470069,24,0
1492.1819995643325,1207.7010498046875,0.9722802639007568,995.0,1721.5047437773962,25,0
1492.2028335548812,1207.044189453125,0.9718880653381348,994.999949687028,1721.5051193828222,26,0
1492.2236675449635,1207.645751953125,0.9722384810447693,995.0000502879096,1721.5046025819784,27,0
1492.2445015345804,1208.7978515625,0.9726372957229614,995.0,1721.505892872002,28,0
1492.2653355232665,1208.2255859375,0.9724206924438477,995.0,1721.504744799442,29,0
1492.286169511021,1208.1722412109375,0.9723484516143799,995.0,1721.5054330721152,30,0
1492.3070034983095,1207.372802734375,0.9719837307929993,995.0,1721.5052020069563,31,0
1492.327837484667,1208.431640625,0.97245854139328,994.9999497447944,1721.5053449820355,32,0
1492.348671470093,1209.80810546875,0.9731574058532715,995.0,1721.5049728839842,33,0
1492.369505455053,1207.5050048828125,0.9724002480506897,995.0,1721.505204520758,34,0
1492.3903394390825,1207.0711669921875,0.9720631837844849,995.0,1721.5056634453938,35,0
1492.411173422646,1209.1142578125,0.972838282585144,995.0,1721.5054319689402,36,0
1492.432007404813,1206.994140625,0.9721058011054993,994.9999496849417,1721.5053482125663,37,0
1492.4528413865146,1209.2548828125,0.972838819026947,995.0000502209925,1721.5052870843922,38,0
1492.473675367284,1208.191162109375,0.9724833965301514,994.9999497347917,1721.5053490769692,39,0
1492.494509347588,1208.57958984375,0.9726337790489197,995.0,1721.506125182866,40,0
1492.5153433264945,1208.697509765625,0.9733096361160278,994.9999497558488,1721.504887367257,41,0
1492.536177304936,1208.072265625,0.9722462892532349,995.0,1721.5061246732187,42,0
1492.5570112824466,1209.638671875,0.9729949831962585,995.0,1721.5052015972776,43,0
1492.577845259025,1209.081298828125,0.9726842641830444,995.0000502282027,1721.5055220734525,44,0
1492.598679235138,1208.82373046875,0.9725862145423889,995.0000502389049,1721.5050637281772,45,0
1492.6195132098535,1206.74462890625,0.9720639586448669,995.0,1721.5047505212606,46,0
1492.640347184104,1208.580810546875,0.9724016785621643,995.0,1721.5054343160186,47,0
1492.6611811574226,1207.46484375,0.9721088409423828,994.999949704556,1721.505812232499,48,0
1492.68201512981,1208.3424072265625,0.9726929068565369,995.0,1721.5061263851635,49,0
1492.7028491012666,1209.804443359375,0.9741684794425964,994.9999498018207,1721.5051170863705,50,0
1492.723683072257,1210.1917724609375,0.9732130765914917,995.0,1721.5049743334882,51,0
1492.744517041851,1209.014892578125,0.9727054238319397,994.9999497690385,1721.5058079612288,52,0
1492.7653510109785,1208.63427734375,0.9725407958030701,995.0,1721.5065844491317,53,0
1492.786184979175,1207.0712890625,0.9721550345420837,995.0000503118424,1721.5059851372243,54,0
1492.807018945975,1204.5526123046875,0.9710797071456909,995.0,1721.5061330938988,55,0
1492.827852912309,1207.0078125,0.9718786478042603,995.0,1721.5052066140443,56,0
1492.8486868777115,1206.230224609375,0.9716241359710693,995.0000503469232,1721.5069070918626,57,0
1492.8695208426484,1203.04833984375,0.9704632759094238,995.0000504800834,1721.5073806447895,58,0
1492.8903548061885,1205.1279296875,0.9714512825012207,995.0,1721.5072870266301,59,0
1492.911188768797,1203.4140625,0.9706865549087524,995.0,1721.5072911155276,60,0
1492.9320227309408,1203.8160400390625,0.9707740545272827,995.0,1721.507520943987,61,0
1492.9528566916874,1206.7418212890625,0.9718978404998779,995.0,1721.5063629739695,62,0
1492.973690651968,1208.081787109375,0.9722951650619507,995.0000502697592,1721.5066744093883,63,0
1492.994524611317,1208.821533203125,0.9724707007408142,995.0,1721.5063552582708,64,0
1493.0153585697349,1208.043701171875,0.9724258184432983,995.000050271344,1721.5055267153543,65,0
1493.036192527221,1208.6817626953125,0.9725406765937805,995.0,1721.5052086947046,66,0
1493.057026483776,1208.443359375,0.9726890921592712,994.9999497452818,1721.5065015968373,67,0
1493.0778604394,1211.426513671875,0.9744669795036316,995.0,1721.5058924289244,68,0
1493.0986943940925,1206.855712890625,0.9718446135520935,995.0,1721.505670525305,69,0
1493.1195283478535,1207.025634765625,0.9719791412353516,994.9999496862546,1721.5046654242121,70,0
1493.140362301149,1209.30078125,0.9737884402275085,994.9999497809135,1721.5069594064234,71,0
1493.1611962530474,1209.598876953125,0.9728904366493225,995.0,1721.50589815314,72,0
1493.182030204015,1209.1326904296875,0.9726877808570862,995.0,1721.5058973480131,73,0
1493.202864154516,1208.692626953125,0.9724903702735901,995.0,1721.5061276903452,74,0
1493.223698104086,1208.929443359375,0.9725928902626038,994.9999497654882,1721.5053519697483,75,0
1493.2445320522595,1210.101318359375,0.9732292294502258,995.0,1721.505436717895,76,0
1493.265365999967,1210.129150390625,0.973272979259491,995.00005018471,1721.5069003724059,77,0
1493.286199946743,1208.623291015625,0.9725106358528137,995.0000502472366,1721.5066744995122,78,0
1493.3070338925882,1210.4345703125,0.9732767343521118,995.0000501720473,1721.5064398217808,79,0
1493.3278678375016,1208.556640625,0.972913920879364,995.0000502500077,1721.5066718374514,80,0
1493.3487017814841,1209.8094482421875,0.9729741215705872,995.0,1721.5070403285965,81,0
1493.3695357245344,1209.4476318359375,0.9740113019943237,995.0,1721.5063550467082,82,0
1493.390369666654,1208.466064453125,0.9725020527839661,995.0,1721.5058974697756,83,0
1493.4112036078425,1209.20703125,0.9726758599281311,995.0,1721.5068156369425,84,0
1493.4320375480995,1209.3323974609375,0.9728448987007141,995.0,1721.5063556522653,85,0
1493.452871487425,1209.374267578125,0.9727823138237,994.9999497839651,1721.5058093139187,86,0
1493.4737054262855,1209.3194580078125,0.9727001786231995,995.0,1721.5061245646275,87,0
1493.4945393637495,1208.7757568359375,0.9725358486175537,995.0,1721.5058960093174,88,0
1493.515373300747,1208.064208984375,0.9743960499763489,995.0000502704906,1721.5064461420657,89,0
1493.536207236348,1208.466796875,0.972445011138916,995.0000502537436,1721.5064470754846,90,0
1493.5570411714825,1209.1448974609375,0.9727403521537781,995.0,1721.5056660994628,91,0
1493.5778751052198,1209.1903076171875,0.9729818105697632,995.0,1721.5061252187759,92,0
1493.598709038492,1209.831787109375,0.9730377197265625,995.0000501970449,1721.505062636831,93,0
1493.619542970833,1210.19580078125,0.9731305837631226,995.0000501819461,1721.5064380158653,94,0
1493.640376902242,1209.134033203125,0.9726654291152954,994.999949773988,1721.5060385800384,95,0
1493.66121083272,1209.572509765625,0.9730094075202942,995.0000502078049,1721.5064412829058,96,0
1493.682044762267,1211.4605712890625,0.9736359119415283,995.0,1721.5065784588007,97,0
1493.7028786908825,1210.3875732421875,0.9731371998786926,995.0,1721.5058943602917,98,0
1493.7237126185664,1209.931884765625,0.972910463809967,994.999949807108,1721.5060377256839,99,0
1493.7445465453188,1208.763671875,0.9727985262870789,995.0,1721.506127330191,100,0
1493.7653804711406,1210.25048828125,0.973297119140625,995.0000501796785,1721.5062097730447,101,0
1493.786214396031,1210.8148193359375,0.973317563533783,995.0,1721.5061232009896,102,0
1493.8070483204551,1210.5411376953125,0.9747655987739563,995.0,1721.5054347930215,103,0
1493.8278822434831,1209.591064453125,0.9729280471801758,995.0,1721.5058981912348,104,0
1493.8487161660446,1210.7060546875,0.9734386205673218,995.0,1721.505435615517,105,0
1493.869550087209,1209.302001953125,0.9731736779212952,995.0,1721.506127681318,106,0
1493.8903840079086,1210.28076171875,0.9730147123336792,994.9999498215766,1721.5067289517904,107,0
1493.911217927211,1209.196533203125,0.9728100299835205,995.0,1721.5063593949285,108,0
1493.9320518460474,1212.50244140625,0.9743325114250183,995.000050086481,1721.5062060421915,109,0
1493.9528857639525,1208.724853515625,0.9725658297538757,994.9999497569854,1721.506271893583,110,0
1493.9737196809265,1208.972900390625,0.9728899002075195,995.0,1721.5065857349616,111,0
1493.9945535969691,1211.1328125,0.9748779535293579,995.000050143122,1721.5066669690373,112,0
1494.0153875116146,1211.070556640625,0.9736286997795105,995.0,1721.5065805773359,113,0
1494.03622142626,1208.3375244140625,0.9727872610092163,995.0,1721.5058980971341,114,0
1494.0570553395085,1210.758056640625,0.9735383987426758,995.0,1721.5058956317116,115,0
1494.077889251826,1209.66357421875,0.9729543924331665,995.0,1721.5056697751788,116,0
1494.0987231632125,1209.91796875,0.9730716347694397,995.0000501934693,1721.506214506407,117,0
1494.1195570736681,1209.4783935546875,0.9729310274124146,995.0,1721.5063579633807,118,0
1494.140390983657,1211.47314453125,0.9737065434455872,995.0000501290357,1721.5062097028049,119,0
1494.161224892249,1210.1768798828125,0.9732350707054138,995.0,1721.5058953865073,120,0
1494.182058800375,1210.2625732421875,0.9729480147361755,995.0,1721.5056639935706,121,0
1494.2028927071046,1209.023193359375,0.9725456237792969,994.9999497693834,1721.5058079213532,122,0
1494.223726613368,1208.953857421875,0.972833514213562,995.0,1721.5056669443393,123,0
1494.2445605187004,1210.1453857421875,0.9732066988945007,995.0,1721.5061234612035,124,0
1494.2653944226354,1210.63037109375,0.9735267758369446,994.9999498360673,1721.5053476264745,125,0
1494.2862283261056,1209.635986328125,0.9730205535888672,995.0000502051702,1721.5064409448946,126,0
1494.3070622286434,1207.46044921875,0.972301185131073,994.999949704373,1721.5060437651823,127,0
1494.327896130251,1208.6781005859375,0.9726801514625549,995.0,1721.5068185690418,128,0
1494.3487300309266,1207.705810546875,0.9729756116867065,995.0,1721.506592492909,129,0
1494.369563931137,1207.631591796875,0.9721565246582031,995.0000502884993,1721.5071367719818,130,0
1494.39039782995,1209.416259765625,0.9729427695274353,994.9999497857086,1721.5071868510622,131,0
1494.411231727831,1207.759765625,0.9722364544868469,995.0000502831624,1721.5062162622721,132,0
1494.432065624782,1209.6597900390625,0.974736750125885,995.0,1721.5058948287472,133,0
1494.452899521267,1211.050537109375,0.9734431505203247,994.9999498534713,1721.5060352733203,134,0
1494.4737334163551,1212.439697265625,0.9739223122596741,995.0,1721.5056585550224,135,0
1494.494567310977,1210.3916015625,0.97320157289505,995.0,1721.5058943406746,136,0
1494.515401204668,1210.3670654296875,0.9731758236885071,995.0,1721.5056635045923,137,0
1494.5362350974274,1212.08740234375,0.9739152789115906,995.0,1721.5054295215632,138,0
1494.55706898879,1208.981689453125,0.9727739691734314,994.999949767659,1721.5060393409597,139,0
1494.577902879687,1209.2354736328125,0.9727830290794373,995.0,1721.506587333386,140,0
1494.5987367696525,1209.25634765625,0.9728955030441284,995.0000502209317,1721.5059866883742,141,0
1494.6195706586864,1210.119873046875,0.973298192024231,995.0,1721.505667687719,142,0
1494.640404547255,1209.5623779296875,0.972947359085083,995.0,1721.5056672219007,143,0
1494.6612384344264,1210.48828125,0.9731065034866333,995.0,1721.5058938699033,144,0
1494.682072320667,1210.955810546875,0.9736467003822327,995.0,1721.5052036511545,145,0
1494.7029062064414,1210.1900634765625,0.9732455611228943,995.0,1721.5054363696463,146,0
1494.7237400908189,1210.1953125,0.9730024337768555,995.0000501819663,1721.5062100561634,147,0
1494.7445739747309,1210.999267578125,0.9732942581176758,995.0,1721.5063500793206,148,0
1494.765407857246,1210.191650390625,0.9731333255767822,995.0,1721.5061232775429,149,0
1494.786241739295,1210.4556884765625,0.9733655452728271,995.0,1721.504743873394,150,0
1494.8279095006,1208.61865234375,0.9726113677024841,995.0,1721.5047494173318,151,0
1494.848743379855,1210.193115234375,0.9734123945236206,995.0000501820575,1721.505523153245,152,0
1494.869577258179,1209.0484619140625,0.972813069820404,995.0,1721.505438322383,153,0
1494.8904111355719,1210.240478515625,0.9734415411949158,995.0000501800936,1721.5052934703342,154,0
1494.911245012034,1206.5626220703125,0.9722496271133423,995.0,1721.5049829216664,155,0
1494.93207888803,1209.67724609375,0.9733035564422607,994.9999497965423,1721.5041993300285,156,0
1494.952912762629,1210.173095703125,0.973003089427948,994.9999498171123,1721.505346570587,157,0
1494.973746636296,1207.930419921875,0.9722349643707275,995.0,1721.5054371915096,158,0
1494.994580509498,1210.201904296875,0.9731378555297852,994.999949818307,1721.5051184822555,159,0
1495.015414381768,1209.523681640625,0.972801685333252,994.9999497901683,1721.5053493907908,160,0
1495.036248252642,1211.563720703125,0.9739425182342529,994.999949874712,1721.5053451189053,161,0
1495.0570821230494,1211.6583251953125,0.9740723371505737,995.0,1721.5045115785413,162,0
1495.077915992526,1208.38720703125,0.9732113480567932,995.0,1721.5047502764896,163,0
1495.0987498610712,1209.5784912109375,0.9729377031326294,995.0,1721.5047456989785,164,0
1495.119583728685,1210.684326171875,0.973448634147644,995.0,1721.5045135948785,165,0
1495.140417595833,1211.26953125,0.973677933216095,995.0,1721.5054331372849,166,0
1495.161251461584,1209.790283203125,0.9730246663093567,994.999949801233,1721.5051201733254,167,0
1495.182085326404,1210.881103515625,0.9734877347946167,995.0000501535454,1721.5048305173084,168,0
1495.202919190758,1209.3243408203125,0.9729455709457397,995.0,1721.5061275681262,169,0
1495.223753053715,1210.103271484375,0.973355233669281,995.0000501857833,1721.505751542948,170,0
1495.244586916207,1211.6455078125,0.9743592143058777,995.0000501219046,1721.505518195007,171,0
1495.2654207777668,1210.112060546875,0.9731643795967102,994.9999498145812,1721.5053498665118,172,0
1495.28625463793,1208.845947265625,0.9730157852172852,995.0,1721.5054392334503,173,0
1495.307088497628,1212.103271484375,0.9740847945213318,995.0,1721.5047405975095,174,0
1495.327922356394,1210.2867431640625,0.9744767546653748,995.0,1721.50543593538,175,0
1495.348756214229,1211.375244140625,0.973987340927124,995.0000501330869,1721.504828597243,176,0
1495.369590071598,1211.166015625,0.973808228969574,994.9999498582525,1721.5053453118524,177,0
1495.3904239275698,1209.76025390625,0.9730871319770813,995.000050200013,1721.5048333783368,178,0
1495.411257782611,1209.560791015625,0.9730556607246399,994.9999497917088,1721.5058084180785,179,0
1495.4320916371864,1210.0289306640625,0.9731204509735107,995.0,1721.5049765665913,180,0
1495.452925490365,1210.5908203125,0.973366379737854,995.0000501655716,1721.504602275248,181,0
1495.473759343078,1211.4423828125,0.9737358093261719,994.9999498696915,1721.505116415172,182,0
1495.4945931948591,1210.0101318359375,0.973223090171814,995.0,1721.5049765934657,183,0
1495.515427045709,1211.332275390625,0.9737370014190674,994.9999498651347,1721.5046567983784,184,0
1495.5362608951618,1211.1376953125,0.9735422730445862,995.0000501429199,1721.5050603529255,185,0
1495.5570947441495,1210.2950439453125,0.9732987284660339,995.0,1721.50497547237,186,0
1495.577928592671,1210.4112548828125,0.9733175039291382,995.0,1721.505204429062,187,0
1495.598762439796,1209.572998046875,0.973069429397583,995.0000502077845,1721.505063719986,188,0
1495.619596285989,1210.160400390625,0.9732891917228699,994.999949816586,1721.5046581808447,189,0
1495.640430131251,1209.728271484375,0.9730530381202698,995.0000502013402,1721.505522197872,190,0
1495.6612639760478,1211.37890625,0.9737167358398438,995.0000501329354,1721.5045978199882,191,0
1495.6820978194469,1211.5057373046875,0.9738872647285461,995.0,1721.505430566604,192,0
1495.7029316623812,1212.4453125,0.9756811857223511,995.0,1721.5051989196515,193,0
1495.7237655043834,1209.72314453125,0.9731482267379761,995.0000502015529,1721.5059813510566,194,0
1495.7445993454544,1207.857177734375,0.9721460938453674,995.0,1721.5054375212108,195,0
1495.765433185594,1207.060302734375,0.9719395637512207,995.0000503123003,1721.5055250490532,196,0
1495.7862670248026,1209.12841796875,0.9729065299034119,994.9999497737548,1721.5067261271374,197,0
1495.8071008630795,1209.570068359375,0.972926676273346,995.0,1721.5063513758178,198,0
1495.8279347004254,1205.709228515625,0.9714742302894592,994.9999496313216,1721.5060462662889,199,0
1495.84876853684,1206.7548828125,0.9717976450920105,994.999949674966,1721.5053552917052,200,0
1495.869602372789,1208.9500732421875,0.972588837146759,995.0,1721.5049793415988,201,0
1495.8904362073404,1212.563232421875,0.9739572405815125,995.0000500839699,1721.5041368855805,202,0
1495.911270041427,1211.79833984375,0.9738634824752808,995.0000501155831,1721.50528832729,203,0
1495.932103874116,1213.8203125,0.9744749665260315,995.000050032101,1721.5050524376645,204,0
1495.952937706339,1211.104736328125,0.9735345244407654,995.0000501442845,1721.5048296757404,205,0
1495.9737715376314,1212.74853515625,0.9742255806922913,995.0,1721.5042786312729,206,0
1495.9946053679919,1212.6121826171875,0.9742292165756226,995.0,1721.504967676255,207,0
1496.015439197422,1212.736083984375,0.9743388891220093,995.0000500768315,1721.5057438377314,208,0
1496.0362730259199,1213.26806640625,0.9744349122047424,995.0000500548742,1721.5052835812367,209,0
1496.057106853487,1213.695068359375,0.9744767546653748,995.0,1721.5054254977829,210,0
1496.0779406805884,1211.77783203125,0.9742020964622498,995.0,1721.5038220956344,211,0
1496.0987745062926,1211.32177734375,0.973747730255127,995.0,1721.5047420939404,212,0
1496.119608331066,1213.439697265625,0.9743349552154541,994.9999499522056,1721.5053385152332,213,0
1496.140442155373,1212.205322265625,0.9752643704414368,994.9999499012425,1721.504193845033,214,0
