time,flux,flux_err,centroid_col,centroid_row,cadenceno,quality
1491.662334243821,19397.732421875,3.816265106201172,1264.229821998665,1469.184340734193,0,0
1491.683167896765,19173.9296875,3.7942593097686768,1264.2301928572854,1469.1840917339543,1,0
1491.7040015483121,18924.587890625,3.769991397857666,1264.230212826113,1469.18362262058,2,0
1491.7248351989274,18673.07421875,3.745274066925049,1264.2304202559585,1469.18372007802,3,0
1491.745668848612,18413.28515625,3.71903920173645,1264.230402340118,1469.1836941077381,4,0
1491.766502497365,18169.662109375,3.6942057609558105,1264.2307959538173,1469.183763974321,5,0
1491.787336145187,17930.615234375,3.6707112789154053,1264.231549981074,1469.1839447441446,6,0
1491.808169791611,17707.763671875,3.6472578048706055,1264.2320776150887,1469.1842596751733,7,0
1491.829003437105,17429.52734375,3.618600368499756,1264.2327200829836,1469.184632467488,8,0
1491.8498370816665,17199.083984375,3.5947508811950684,1264.2333311917844,1469.1841783466734,9,0
1491.870670724832,16992.25390625,3.573225736618042,1264.23371818863,1469.1844200838755,10,0
1491.891504367065,16843.35546875,3.557528018951416,1264.2341703664092,1469.1844091199725,11,0
1491.912338007902,16718.896484375,3.54437255859375,1264.234112726816,1469.1844623805866,12,0
1491.9331716478075,16632.96484375,3.535376787185669,1264.2341658258063,1469.1848019783872,13,0
1491.954005286316,16566.984375,3.5284910202026367,1264.2337149782322,1469.185040855978,14,0
1491.9748389234276,16528.06640625,3.5242724418640137,1264.233525153119,1469.1845196292527,15,0
1491.9956725596085,16508.455078125,3.5225272178649902,1264.2334955327105,1469.1846023371193,16,0
1492.016506194392,16497.662109375,3.5210511684417725,1264.23302363628,1469.184634108017,17,0
1492.037339827778,16498.82421875,3.5212340354919434,1264.2328884512722,1469.184422602676,18,0
1492.058173460233,16489.955078125,3.5202391147613525,1264.23209269534,1469.184452534847,19,0
1492.079007091291,16491.1328125,3.520265817642212,1264.2318818203676,1469.1845633854487,20,0
1492.099840720952,16489.8828125,3.5201401710510254,1264.2312634285702,1469.184513949427,21,0
1492.120674349681,16495.212890625,3.520787000656128,1264.230987736854,1469.1842149856095,22,0
1492.141507977014,16495.984375,3.520925998687744,1264.2306632701448,1469.1834192320598,23,0
1492.162341602949,16493.392578125,3.5206503868103027,1264.2301960971113,1469.183754677684,24,0
1492.183175227488,16490.6953125,3.5204038619995117,1264.2297838693007,1469.1840212908298,25,0
1492.2040088510948,16497.70703125,3.520987033843994,1264.2297202967127,1469.1834517412221,26,0
1492.2248424733054,16488.38671875,3.5201613903045654,1264.2296872597592,1469.1839732664587,27,0
1492.245676094119,16499.693359375,3.521357297897339,1264.2291087722037,1469.1840072149187,28,0
1492.266509713535,16491.0703125,3.520982265472412,1264.228843678776,1469.1834153290583,29,0
1492.28734333202,16491.419921875,3.5206797122955322,1264.2282378845912,1469.1835551219401,30,0
1492.3081769486425,16499.626953125,3.521298408508301,1264.22835253052,1469.1832428014766,31,0
1492.3290105643334,16490.962890625,3.5207717418670654,1264.227862290639,1469.1834224974427,32,0
1492.3498441786276,16492.921875,3.520470142364502,1264.2273790271774,1469.1828656433584,33,0
1492.3706777919901,16494.6875,3.520880699157715,1264.227514940298,1469.1834859308988,34,0
1492.39151140349,16481.947265625,3.5198285579681396,1264.2266986343486,1469.1826356654185,35,0
1492.4123450140592,16489.52734375,3.520169734954834,1264.2269791148217,1469.1828974249518,36,0
1492.4331786232315,16475.0703125,3.5188448429107666,1264.2261431022796,1469.183123003316,37,0
1492.454012231007,16482.412109375,3.519721031188965,1264.226289038268,1469.1824665288937,38,0
1492.4748458373845,16491.142578125,3.5207390785217285,1264.2258307312222,1469.1826059636062,39,0
1492.495679442831,16488.787109375,3.5202815532684326,1264.2256770521965,1469.1827076067555,40,0
1492.5165130468804,16485.04296875,3.519559860229492,1264.2254867234644,1469.1814993915532,41,0
1492.537346649533,16480.501953125,3.5191650390625,1264.2254536892376,1469.1824330586203,42,0
1492.5581802507895,16487.958984375,3.5198354721069336,1264.2252830915909,1469.1819981230385,43,0
1492.5790138511136,16483.294921875,3.519484519958496,1264.2250725669585,1469.1820389860852,44,0
1492.599847449575,16485.3984375,3.5197696685791016,1264.2247896650138,1469.1814479394288,45,0
1492.6206810471056,16476.296875,3.518915891647339,1264.2244370212109,1469.1817396830959,46,0
1492.6415146437039,16477.107421875,3.518817663192749,1264.2241306860524,1469.1816663928494,47,0
1492.6623482384405,16466.322265625,3.518178939819336,1264.2243094466487,1469.1813119213375,48,0
1492.6831818322455,16488.841796875,3.5204038619995117,1264.2238935003631,1469.1811477372778,49,0
1492.7040154246536,16474.62109375,3.5187644958496094,1264.2238803683126,1469.1811015457488,50,0
1492.7248490156644,16493.134765625,3.520563840866089,1264.2237554599244,1469.1811999488423,51,0
1492.7456826052785,16493.48046875,3.5207576751708984,1264.2233104918823,1469.1804988760948,52,0
1492.766516193961,16481.1953125,3.5193629264831543,1264.2230184699727,1469.1817420839589,53,0
1492.787349781247,16473.72265625,3.518418550491333,1264.223196734596,1469.1806279125753,54,0
1492.808183367135,16482.263671875,3.5199384689331055,1264.2230014738855,1469.1812292249754,55,0
1492.829016952093,16472.65625,3.518437385559082,1264.2231775921864,1469.1793355243656,56,0
1492.8498505351874,16495.23046875,3.5207159519195557,1264.222974543245,1469.179985850254,57,0
1492.870684117351,16480.30078125,3.519082546234131,1264.222425175227,1469.1800329886037,58,0
1492.891517698583,16472.595703125,3.518240451812744,1264.2224827361827,1469.1797399673274,59,0
1492.9123512779524,16480.986328125,3.519243001937866,1264.222374408424,1469.1791772731124,60,0
1492.9331848563916,16478.1015625,3.5195326805114746,1264.2222301899728,1469.1798325677971,61,0
1492.954018433433,16472.369140625,3.5188589096069336,1264.2221457381343,1469.1792473588287,62,0
1492.9748520095432,16473.171875,3.5189359188079834,1264.2214562601432,1469.1797605131876,63,0
1492.995685584256,16483.443359375,3.5201776027679443,1264.2213070350658,1469.1791100338253,64,0
1493.016519157572,16485.00390625,3.5197346210479736,1264.2215106026167,1469.1789207731056,65,0
1493.0373527294905,16487.76171875,3.52023983001709,1264.2218439659434,1469.17806007036,66,0
1493.0581863004782,16472.638671875,3.5186219215393066,1264.2214287547852,1469.1793204353075,67,0
1493.0790198700686,16478.251953125,3.5191099643707275,1264.2213144337381,1469.178439903329,68,0
1493.0998534387281,16467.78125,3.5185539722442627,1264.2209929939545,1469.1789055220754,69,0
1493.1206870055246,16490.52734375,3.5203309059143066,1264.2210010851993,1469.1778659623483,70,0
1493.1415205713895,16467.35546875,3.5178778171539307,1264.220493254232,1469.1795799374497,71,0
1493.1623541363235,16491.55078125,3.5204436779022217,1264.2208927876065,1469.177352121837,72,0
1493.183187699861,16496.376953125,3.521217107772827,1264.2208330324072,1469.17765445064,73,0
1493.2040212620004,16486.658203125,3.520549774169922,1264.2208555769942,1469.1779339967604,74,0
1493.2248548227435,16495.767578125,3.5215885639190674,1264.220355410769,1469.1771322689544,75,0
1493.245688382555,16476.9375,3.5189552307128906,1264.2202448095065,1469.1763783203369,76,0
1493.26652194097,16480.474609375,3.5193257331848145,1264.2202083019524,1469.1768698781573,77,0
1493.287355498453,16488.609375,3.5202813148498535,1264.220288208254,1469.1768321241652,78,0
1493.30818905454,16486.96875,3.519918203353882,1264.2199919550574,1469.1764955037288,79,0
1493.329022609229,16486.4765625,3.5198814868927,1264.219846068795,1469.177021411429,80,0
1493.3498561629872,16497.69921875,3.5211341381073,1264.2201834533153,1469.176571725733,81,0
1493.370689715348,16496.7109375,3.5210635662078857,1264.2197580504328,1469.1762327282688,82,0
1493.391523266778,16489.16015625,3.520092010498047,1264.2201934642787,1469.176319462952,83,0
1493.4123568168104,16484.798828125,3.5199267864227295,1264.2196908266694,1469.1761231301873,84,0
1493.433190365447,16490.224609375,3.520240068435669,1264.2199901590016,1469.1759088969613,85,0
1493.454023913151,16495.111328125,3.520779609680176,1264.2196374440723,1469.1757403309125,86,0
1493.4748574594596,16496.390625,3.5210795402526855,1264.2198248237778,1469.1755376368433,87,0
1493.495691004836,16485.80078125,3.520080804824829,1264.2190698183097,1469.1756727868917,88,0
1493.5165245488151,16485.7109375,3.5198984146118164,1264.219314468472,1469.175607421152,89,0
1493.537358091398,16484.82421875,3.5198376178741455,1264.219704476359,1469.1746719135615,90,0
1493.558191633049,16475.19921875,3.5186915397644043,1264.2194161735406,1469.1759152858428,91,0
1493.5790251733029,16487.220703125,3.520042896270752,1264.2193210840262,1469.1744420350065,92,0
1493.5998587126255,16490.21484375,3.520301342010498,1264.2192518808504,1469.1745424014478,93,0
1493.620692250551,16488.787109375,3.5201961994171143,1264.219137614707,1469.1745484902206,94,0
1493.6415257870794,16486.685546875,3.52026629447937,1264.2190665618195,1469.1746758274285,95,0
1493.6623593226768,16493.34375,3.5205233097076416,1264.218486169906,1469.174253726527,96,0
1493.6831928573429,16477.93359375,3.5190625190734863,1264.2188645367585,1469.1745464193236,97,0
1493.704026390612,16484.3203125,3.519995927810669,1264.2190720908197,1469.1744688548729,98,0
1493.724859922484,16492.1328125,3.5204355716705322,1264.2186894538495,1469.1738314548531,99,0
1493.7456934534246,16475.009765625,3.5186476707458496,1264.218817762876,1469.1737591365593,100,0
1493.766526983434,16479.0,3.5192160606384277,1264.2188987970367,1469.173412112575,101,0
1493.7873605115806,16482.275390625,3.519857406616211,1264.2188658211799,1469.1733543075688,102,0
1493.8081940392615,16478.31640625,3.5190024375915527,1264.218627287541,1469.173318188154,103,0
1493.82902756508,16481.22265625,3.519599437713623,1264.218673882067,1469.1733199260498,104,0
1493.849861090433,16491.826171875,3.5204718112945557,1264.2183499919763,1469.1729975357703,105,0
1493.870694613923,16483.900390625,3.5196292400360107,1264.2184196476273,1469.1728570724845,106,0
1493.8915281364816,16489.1953125,3.520019054412842,1264.21816773543,1469.1729794904168,107,0
1493.9123616581091,16487.26171875,3.519920825958252,1264.2185702106906,1469.1727137564062,108,0
1493.9331951783395,16484.728515625,3.519700765609741,1264.2182680531378,1469.1722393083157,109,0
1493.9540286976385,16485.111328125,3.5200774669647217,1264.218088014611,1469.1723607029046,110,0
1493.974862215541,16482.666015625,3.5194873809814453,1264.2183456815724,1469.1720247804126,111,0
1493.9956957325114,16486.248046875,3.519860029220581,1264.2182085293864,1469.1723619022437,112,0
1494.0165292480856,16490.62109375,3.5205609798431396,1264.2179407539063,1469.1720839070692,113,0
1494.037362762728,16488.54296875,3.5206706523895264,1264.218337396978,1469.1714887713817,114,0
1494.0581962759734,16423.232421875,3.5136146545410156,1264.2180388796953,1469.1720616278744,115,0
1494.0790297882882,16343.7822265625,3.5048909187316895,1264.217916291752,1469.171649742206,116,0
1494.0998632992055,16326.052734375,3.502934217453003,1264.2180703645522,1469.1714253746798,117,0
1494.120696809192,16329.3671875,3.5033957958221436,1264.2180323437715,1469.1716626133466,118,0
1494.141530317781,16335.5458984375,3.5039451122283936,1264.2179645447025,1469.1706492216845,119,0
1494.1623638254391,16332.6201171875,3.5035457611083984,1264.2178325324076,1469.1710507941505,120,0
1494.1831973316994,16339.9228515625,3.504359722137451,1264.2181155619555,1469.1709811753242,121,0
1494.204030837029,16373.154296875,3.508197546005249,1264.2178659882943,1469.1705425632422,122,0
1494.224864340961,16475.02734375,3.5188443660736084,1264.217742778962,1469.1703657725814,123,0
1494.245697843962,16486.57421875,3.5198376178741455,1264.2173076716897,1469.1700808043856,124,0
1494.2665313460316,16493.072265625,3.5206894874572754,1264.2174116769315,1469.1696958938608,125,0
1494.287364846704,16488.38671875,3.5201334953308105,1264.2177313720097,1469.1701120811358,126,0
1494.3081983464456,16489.75390625,3.520833969116211,1264.2175041165478,1469.169619859823,127,0
1494.3290318447898,16485.357421875,3.519731283187866,1264.2174260674985,1469.169763675518,128,0
1494.3498653417375,16490.896484375,3.5202431678771973,1264.2176630003842,1469.169603414597,129,0
1494.3706988382191,16487.41015625,3.5200464725494385,1264.2174198168964,1469.1696328957914,130,0
1494.3915323328379,16493.771484375,3.5207133293151855,1264.2171882828402,1469.1689626031891,131,0
1494.4123658269918,16488.28125,3.520026206970215,1264.217823664416,1469.1692980780622,132,0
1494.433199319748,16488.80078125,3.5201938152313232,1264.217305134664,1469.1687618510837,133,0
1494.4540328111075,16486.41015625,3.519874095916748,1264.2172960251826,1469.1686581763247,134,0
1494.4748663015366,16491.869140625,3.5204336643218994,1264.2173959539957,1469.1686567448542,135,0
1494.495699791033,16498.673828125,3.5210843086242676,1264.2175654861464,1469.1688053822033,136,0
1494.516533279133,16490.755859375,3.5203166007995605,1264.2173343194643,1469.1685003787634,137,0
1494.5373667663016,16494.140625,3.521205425262451,1264.2173681098284,1469.1682806468325,138,0
1494.558200252073,16489.703125,3.520174026489258,1264.2171213942934,1469.168259373629,139,0
1494.5790337369135,16488.671875,3.520758867263794,1264.2173074850157,1469.168492861754,140,0
1494.599867220822,16486.94140625,3.519871473312378,1264.2168586105197,1469.1676817806447,141,0
1494.620700703334,16492.140625,3.520540952682495,1264.2170895559154,1469.1679329145418,142,0
1494.6415341849145,16488.220703125,3.5201361179351807,1264.2171086878548,1469.1676821337535,143,0
1494.662367665098,16491.404296875,3.5203065872192383,1264.2170947853515,1469.1674138450915,144,0
1494.6832011443505,16488.0078125,3.5199546813964844,1264.217305087386,1469.1676699284874,145,0
1494.7040346226715,16492.84375,3.5206527709960938,1264.2170662900553,1469.1675280996042,146,0
1494.724868099595,16493.576171875,3.5205023288726807,1264.217116125999,1469.1672681501475,147,0
1494.7457015751224,16485.93359375,3.5197720527648926,1264.2169970777645,1469.1669508543505,148,0
1494.7665350501838,16492.9296875,3.5207152366638184,1264.2170955046433,1469.167074262705,149,0
1494.787368523848,16489.3125,3.520538091659546,1264.2166104453547,1469.1661373746701,150,0
1494.8290354674514,16474.328125,3.5192198753356934,1264.2170701180316,1469.166926597502,151,0
1494.8498689378562,16481.10546875,3.5192642211914062,1264.2170126071214,1469.1667254189397,152,0
1494.870702406864,16478.732421875,3.518995761871338,1264.217346657523,1469.1667898377775,153,0
1494.89153587494,16477.658203125,3.5189294815063477,1264.217116014452,1469.1664611549065,154,0
1494.912369342086,16466.1640625,3.5177664756774902,1264.21724180985,1469.1663004766758,155,0
1494.933202807835,16471.552734375,3.5182905197143555,1264.2167521819401,1469.1659608377252,156,0
1494.9540362726516,16477.986328125,3.518847703933716,1264.21704670732,1469.1658767500414,157,0
1494.974869736071,16486.55078125,3.519733428955078,1264.2170755320328,1469.165541175904,158,0
1494.99570319856,16477.02734375,3.5192244052886963,1264.2165825498878,1469.1656513913547,159,0
1495.016536660117,16482.42578125,3.5192956924438477,1264.2168379551872,1469.1657051760978,160,0
1495.037370120277,16480.1484375,3.5190320014953613,1264.21698689984,1469.165483743403,161,0
1495.058203579506,16481.90625,3.519221067428589,1264.2166269036027,1469.1653806402405,162,0
1495.0790370378036,16485.09765625,3.519651174545288,1264.2168766520306,1469.1650362039816,163,0
1495.099870494704,16478.3671875,3.5188565254211426,1264.2169465509587,1469.1649327186663,164,0
1495.120703950673,16487.498046875,3.520219326019287,1264.2170153056902,1469.16477715004,165,0
1495.141537405245,16482.3671875,3.520184278488159,1264.2167238794013,1469.1646965264254,166,0
1495.1623708588859,16484.625,3.519679546356201,1264.2167577464465,1469.1648097561435,167,0
1495.183204311596,16481.625,3.519412040710449,1264.2166031741433,1469.1647687863685,168,0
1495.2040377629085,16494.08203125,3.5214836597442627,1264.2165634987455,1469.1644521309727,169,0
1495.22487121329,16487.451171875,3.519892692565918,1264.2167107441444,1469.1639706378846,170,0
1495.2457046627396,16485.494140625,3.5198819637298584,1264.2169244833851,1469.164268350028,171,0
1495.2665381107925,16481.228515625,3.519265651702881,1264.2164999666998,1469.1639680275464,172,0
1495.287371557914,16493.9140625,3.5207836627960205,1264.2167454357573,1469.163251250698,173,0
1495.308205004104,16478.40234375,3.518972158432007,1264.2165113852864,1469.1636847953914,174,0
1495.329038448898,16490.935546875,3.5203404426574707,1264.2164734215967,1469.163268544841,175,0
1495.34987189276,16492.8359375,3.5206949710845947,1264.2167143446043,1469.1632863025754,176,0
1495.370705335225,16486.90625,3.520019054412842,1264.2165789841395,1469.1630861392612,177,0
1495.391538777224,16480.36328125,3.519047975540161,1264.2162877449678,1469.1633346032909,178,0
1495.412372217361,16484.140625,3.519522190093994,1264.2163258689698,1469.1627927544587,179,0
1495.433205657032,16478.939453125,3.519113302230835,1264.2164476227765,1469.1626801971552,180,0
1495.454039095307,16484.525390625,3.519765853881836,1264.21640170611,1469.1625465250495,181,0
1495.4748725326494,16483.958984375,3.519585371017456,1264.2164579657046,1469.162229997629,182,0
1495.4957059685948,16488.35546875,3.5200564861297607,1264.2164192461582,1469.162832015504,183,0
1495.5165394040755,16486.01953125,3.5198476314544678,1264.2161920205947,1469.1623491915855,184,0
1495.537372837693,16485.841796875,3.5199148654937744,1264.2164375687662,1469.1620678731667,185,0
1495.5582062708445,16484.935546875,3.5198466777801514,1264.2161416948854,1469.1620672081413,186,0
1495.5790397025994,16492.984375,3.5204689502716064,1264.2160507210808,1469.161830401551,187,0
1495.599873133423,16489.07421875,3.5206387042999268,1264.2163246472628,1469.1621151970778,188,0
1495.6207065628491,16488.0703125,3.5199718475341797,1264.2160413136653,1469.1613462065138,189,0
1495.6415399913444,16479.3125,3.5191245079040527,1264.21626430623,1469.1615800581174,190,0
1495.662373418908,16480.1328125,3.5193397998809814,1264.2160932217982,1469.1611961780923,191,0
1495.683206845541,16489.39453125,3.5201125144958496,1264.2163067570064,1469.1613685909622,192,0
1495.7040402707764,16477.419921875,3.5190649032592773,1264.2158185980484,1469.1609592699597,193,0
1495.724873695081,16490.193359375,3.5202252864837646,1264.2161645270585,1469.161279633942,194,0
1495.7457071179879,16487.8203125,3.5200588703155518,1264.2158909189477,1469.1611163037132,195,0
1495.766540539964,16491.7109375,3.5203945636749268,1264.2160713490537,1469.160617036127,196,0
1495.7873739610086,16491.7578125,3.520494222640991,1264.21606809243,1469.1607065940846,197,0
1495.808207380656,16494.3515625,3.5207650661468506,1264.215818894797,1469.16001755839,198,0
1495.829040799838,16495.693359375,3.5209062099456787,1264.216354122081,1469.1606514247624,199,0
1495.849874217623,16488.658203125,3.5200788974761963,1264.2162528000722,1469.1601791886303,200,0
1495.870707634011,16490.2421875,3.5201730728149414,1264.215870278517,1469.1601083941805,201,0
1495.891541049468,16489.517578125,3.520785093307495,1264.2159056525968,1469.15962254459,202,0
1495.9123744639928,16493.095703125,3.5205204486846924,1264.216070215816,1469.1602178838446,203,0
1495.933207877587,16479.1953125,3.5192625522613525,1264.2160278324423,1469.1593952418461,204,0
1495.954041289784,16478.021484375,3.519064426422119,1264.2162497213085,1469.160171701842,205,0
