time,flux,flux_err,centroid_col,centroid_row,cadenceno,quality
1653.950220346829,652.8839721679688,0.7467169165611267,1080.2826182911215,1856.7597661451955,0,0
1653.9710535398485,652.8209228515625,0.7467274069786072,1080.281700847939,1856.7606364936278,1,0
1653.9918867342635,652.9686279296875,0.746628999710083,1080.2820811473814,1856.7601130905855,2,0
1654.0127199301928,654.086669921875,0.7475986480712891,1080.2809095104808,1856.759744455215,3,0
1654.03355312752,655.8023681640625,0.7483707070350647,1080.2813240541866,1856.759223181065,4,0
1654.0543863263595,660.7763061523438,0.7506888508796692,1080.2810085968624,1856.7581400522567,5,0
1654.0752195267123,664.8630981445312,0.7528588175773621,1080.282770372337,1856.7567532552896,6,0
1654.0960527284624,672.7699584960938,0.7568610906600952,1080.2840138540025,1856.7555905501238,7,0
1654.116885931726,686.2596435546875,0.7635458707809448,1080.2841729147704,1856.7538163001466,8,0
1654.1377191363865,703.5509033203125,0.772375226020813,1080.2851669795848,1856.7509484272462,9,0
1654.158552342444,721.2942504882812,0.7805051207542419,1080.2856676878762,1856.7495282493992,10,0
1654.1793855498986,737.9773559570312,0.7886072397232056,1080.286166796832,1856.747487308971,11,0
1654.2002187588655,754.7095947265625,0.7971764802932739,1080.2884360512219,1856.7465519659183,12,0
1654.221051968997,773.708740234375,0.8053761720657349,1080.2888142368633,1856.7445689816482,13,0
1654.2418851805269,789.6309814453125,0.8130245804786682,1080.2898940421483,1856.741977720414,14,0
1654.2627183933364,806.9649047851562,0.8208498358726501,1080.2908011670247,1856.740255279487,15,0
1654.2835516074265,821.11767578125,0.8282173871994019,1080.2918139427431,1856.7392311430626,16,0
1654.3043848226816,836.4642944335938,0.8343765735626221,1080.292028785744,1856.7377706302343,17,0
1654.3252180391,850.5932006835938,0.8413389325141907,1080.2930317077517,1856.736576894184,18,0
1654.3460512565655,862.2769775390625,0.8463713526725769,1080.2931649806696,1856.7352493313417,19,0
1654.3668844751955,875.7171020507812,0.8521116971969604,1080.293429861367,1856.733582389823,20,0
1654.38771769499,890.5404663085938,0.8585591912269592,1080.2938747270077,1856.7332762189942,21,0
1654.4085509156,903.751220703125,0.8642144203186035,1080.2947777276515,1856.7317653538244,22,0
1654.4293841373728,916.052734375,0.8699676394462585,1080.2937082839394,1856.7296376186252,23,0
1654.450217359961,928.0064086914062,0.8751494288444519,1080.2953587227746,1856.7296898534423,24,0
1654.471050583597,940.6446533203125,0.8805781602859497,1080.295375401599,1856.7290035662927,25,0
1654.491883808048,953.5174560546875,0.8858820796012878,1080.2960328514835,1856.7274710464378,26,0
1654.5335502593955,981.920654296875,0.8978448510169983,1080.2973822442216,1856.7259374937064,27,0
1654.5543834862915,995.0950927734375,0.9034032821655273,1080.29826251049,1856.7255975322807,28,0
1654.575216714002,1006.95068359375,0.9081747531890869,1080.2985238406388,1856.7253699566247,29,0
1654.5960499424104,1017.5159301757812,0.9126487374305725,1080.2990247544521,1856.7243408771205,30,0
1654.6168831714026,1022.7025146484375,0.9148707985877991,1080.2993734527145,1856.724317732236,31,0
1654.6377164012085,1024.1236572265625,0.9154538512229919,1080.2998408390558,1856.7238574007097,32,0
1654.6585496315965,1023.961181640625,0.9151263236999512,1080.2985571850759,1856.7238620445883,33,0
1654.679382862567,1025.82470703125,0.9163802862167358,1080.2980902965364,1856.7235035977626,34,0
1654.700216094119,1023.024658203125,0.9154878854751587,1080.29895572737,1856.723368998563,35,0
1654.7210493263706,1022.7293090820312,0.9147112965583801,1080.2988798248216,1856.7236982091079,36,0
1654.74188255897,1023.37451171875,0.9150930643081665,1080.298122147069,1856.7234015118297,37,0
1654.762715792268,1023.2070922851562,0.914871871471405,1080.2980530862596,1856.7236257566335,38,0
1654.7835490259172,1019.7307739257812,0.9134719967842102,1080.297842214667,1856.7234481290748,39,0
1654.8043822601464,1016.950927734375,0.91225266456604,1080.2976994457476,1856.7246844324152,40,0
1654.825215494842,1010.120849609375,0.9096658229827881,1080.297752755015,1856.7242414419009,41,0
1654.8460487298871,1004.4376220703125,0.9069886803627014,1080.2971995732316,1856.7252797734857,42,0
1654.8668819653976,994.4951171875,0.9029226899147034,1080.2964205789094,1856.725595330447,43,0
1654.8877152012574,982.81201171875,0.8979622721672058,1080.2967074705423,1856.7260498005514,44,0
1654.9085484375826,971.2329711914062,0.8935732841491699,1080.2964257248668,1856.7272285543838,45,0
1654.929381674257,959.8170166015625,0.888692319393158,1080.29544437677,1856.7264395310538,46,0
1654.950214911282,951.9525146484375,0.8852123022079468,1080.2953165683452,1856.727186042769,47,0
1654.9710481485386,945.1788330078125,0.8818729519844055,1080.2948148014214,1856.7285438411036,48,0
1654.99188138626,941.8760986328125,0.8807437419891357,1080.294206152816,1856.728933556113,49,0
1655.0127146242155,938.76708984375,0.8795487284660339,1080.2943736525374,1856.728538966865,50,0
1655.0335478624033,935.439697265625,0.8780454397201538,1080.2938325593668,1856.7282978138676,51,0
1655.054381100941,936.8894653320312,0.8789457678794861,1080.2944252041223,1856.728446070706,52,0
1655.0752143397106,936.7615966796875,0.8787487745285034,1080.2941997218904,1856.7285109391498,53,0
1655.0960475788302,937.6055297851562,0.8794794082641602,1080.2946421590955,1856.728041843467,54,0
1655.1168808180669,936.8226318359375,0.8785909414291382,1080.2941555363375,1856.728891128499,55,0
1655.1377140575346,939.6637573242188,0.8797993063926697,1080.294772137562,1856.728461316268,56,0
1655.158547297236,936.486572265625,0.8783969879150391,1080.2940082821299,1856.72850342258,57,0
1655.17938053717,930.97021484375,0.8761970400810242,1080.2946478257152,1856.7293197292915,58,0
1655.2002137773375,926.4048461914062,0.873993992805481,1080.2937108489093,1856.7295935023199,59,0
1655.221047017621,922.000732421875,0.8724876642227173,1080.2932967961203,1856.7295811747074,60,0
1655.2418802580205,919.290771484375,0.8712450265884399,1080.293257748482,1856.72960370902,61,0
1655.2627134986535,911.1102294921875,0.8684084415435791,1080.292417182098,1856.7298394654745,62,0
1655.2835467394025,906.1380615234375,0.8662023544311523,1080.29253855844,1856.7301682131265,63,0
1655.304379980268,901.7755126953125,0.8643307089805603,1080.2924930066215,1856.7309536443743,64,0
1655.3252132213665,896.5017700195312,0.8613103032112122,1080.2925902513466,1856.7325465498525,65,0
1655.3460464625814,892.818603515625,0.8591989278793335,1080.2923602024619,1856.7314509425114,66,0
1655.3668797037965,890.4152221679688,0.8596909046173096,1080.2922520881598,1856.7317882851107,67,0
1655.3877129452444,889.6470947265625,0.8579827547073364,1080.2921142924338,1856.7307350491335,68,0
1655.4085461866914,889.4180908203125,0.8579073548316956,1080.292212974188,1856.731787580017,69,0
1655.4293794282562,886.387939453125,0.8567449450492859,1080.2921042955177,1856.731295919871,70,0
1655.4502126699365,889.828369140625,0.8587591052055359,1080.2922949241606,1856.731202484569,71,0
1655.471045911733,890.8709106445312,0.858483612537384,1080.291698721618,1856.7319384607965,72,0
1655.4918791535301,891.9408569335938,0.8589136600494385,1080.2916822657644,1856.7319487675795,73,0
1655.5127123954435,894.8004150390625,0.861025333404541,1080.2922180552932,1856.7318610120726,74,0
1655.533545637357,897.4052734375,0.8614299893379211,1080.292207630125,1856.7318416036142,75,0
1655.5543788793866,899.01220703125,0.8624213337898254,1080.292468520137,1856.7311246759546,76,0
1655.575212121415,902.08984375,0.8646314740180969,1080.2920920321194,1856.7306203585424,77,0
1655.5960453634461,900.1177978515625,0.862802267074585,1080.2925571604194,1856.730514838756,78,0
1655.6168786055925,900.955078125,0.8629312515258789,1080.2919160696981,1856.730798744117,79,0
1655.637711847738,898.1023559570312,0.8622168898582458,1080.2926162877743,1856.731498244352,80,0
1655.658545089884,895.7140502929688,0.8614465594291687,1080.2923700301028,1856.7318613032073,81,0
1655.6793783320304,888.125732421875,0.8575980067253113,1080.2925994972734,1856.7319725061802,82,0
1655.700211574293,883.56298828125,0.8559212684631348,1080.2921184742286,1856.7312961478544,83,0
1655.721044816439,879.6824340820312,0.8543776273727417,1080.29313196117,1856.7314673562244,84,0
1655.741878058585,880.029296875,0.853967010974884,1080.2915245450258,1856.732190291572,85,0
1655.762711300848,882.533447265625,0.8556707501411438,1080.2921468608579,1856.733466738795,86,0
1655.7835445429946,880.3822631835938,0.853929340839386,1080.2906436884502,1856.732259549813,87,0
1655.8043777852565,877.5767822265625,0.853356659412384,1080.2908819090098,1856.7324845123367,88,0
1655.8252110274025,874.0538940429688,0.8512343168258667,1080.2913430076703,1856.733282845102,89,0
1655.846044269548,870.1915893554688,0.8496114611625671,1080.2915656798145,1856.7329439738564,90,0
1655.8668775115784,865.4813842773438,0.8471788763999939,1080.2907108135819,1856.7337952053333,91,0
1655.8877107537246,862.0181274414062,0.8459342122077942,1080.2906746154672,1856.734050723255,92,0
1655.908543995754,852.633544921875,0.841770589351654,1080.290230471308,1856.7349045581145,93,0
1655.9293772377841,848.1369018554688,0.8394641280174255,1080.2902424460497,1856.7352971475348,94,0
1655.950210479814,839.7468872070312,0.8358361721038818,1080.2901656608215,1856.7359511594832,95,0
1655.9710437217275,834.9813232421875,0.8336887359619141,1080.2897746867877,1856.737073305374,96,0
1655.9918769635235,829.3828735351562,0.8308917880058289,1080.2896322758274,1856.73736301854,97,0
1656.0127102054366,826.2373046875,0.8299716114997864,1080.2890196085239,1856.7379827594918,98,0
1656.033543447234,821.1663208007812,0.8277620077133179,1080.288759322607,1856.7376937984711,99,0
1656.0543766889155,819.2998046875,0.8264328837394714,1080.2877922655707,1856.7373610710483,100,0
1656.075209930595,818.4232177734375,0.8261438012123108,1080.2878499894773,1856.7373793967147,101,0
1656.0960431721585,815.56298828125,0.824517548084259,1080.2880257074742,1856.737681392503,102,0
1656.1168764137228,816.098876953125,0.8249059915542603,1080.2880310088337,1856.738265674038,103,0
1656.137709655171,817.3190307617188,0.8253030776977539,1080.2878475060218,1856.7386015784534,104,0
1656.1585428965025,816.3621826171875,0.8251339793205261,1080.288810576498,1856.738054995941,105,0
1656.179376137833,816.2564697265625,0.8248692750930786,1080.2885175330462,1856.7394128677615,106,0
1656.2002093790484,814.4603881835938,0.8247790336608887,1080.288087508812,1856.738354963711,107,0
1656.2210426202635,813.3221435546875,0.823883056640625,1080.288093590695,1856.7379924685583,108,0
1656.241875861245,812.223388671875,0.8233103156089783,1080.2875068532946,1856.7385068857577,109,0
1656.2627091022264,807.323974609375,0.8212283253669739,1080.2877732740938,1856.738553772092,110,0
1656.2835423430915,802.5550537109375,0.818712055683136,1080.2882347044983,1856.7400417231283,111,0
1656.304375583958,799.1513671875,0.817087709903717,1080.2876015137824,1856.7397059724306,112,0
1656.3252088245904,793.7989501953125,0.8146193027496338,1080.2856304152626,1856.7391194579075,113,0
1656.346042065223,788.3399658203125,0.8122231364250183,1080.2864011383567,1856.7404662855731,114,0
1656.366875305739,786.6875,0.8117688894271851,1080.2861793247125,1856.7410412590868,115,0
1656.387708546139,784.810302734375,0.8105424046516418,1080.285618441801,1856.7411188908484,116,0
1656.4085417864235,783.540283203125,0.8121797442436218,1080.287185246937,1856.7411125385238,117,0
1656.4293750265902,782.220703125,0.8096227049827576,1080.2870517561616,1856.7419129192915,118,0
1656.4502082667564,783.5701904296875,0.8105391263961792,1080.2858880080673,1856.7409492815634,119,0
1656.471041506692,782.953369140625,0.8099488615989685,1080.2859322229315,1856.7415448606273,120,0
1656.4918747465094,783.7581787109375,0.8103496432304382,1080.2863723682733,1856.7407255565608,121,0
1656.512707986211,784.9708862304688,0.8112179040908813,1080.2871459159007,1856.7412755172377,122,0
1656.5335412259114,788.8901977539062,0.8127779960632324,1080.2866840430888,1856.7415466728232,123,0
1656.55437446538,791.1383056640625,0.8137004971504211,1080.2873473712796,1856.7405645420733,124,0
1656.5752077047332,792.6312255859375,0.814216136932373,1080.2875786106617,1856.7412026131813,125,0
1656.5960409440854,796.1438598632812,0.8162927031517029,1080.2875298000517,1856.7396460224957,126,0
1656.616874183204,796.7211303710938,0.8159800171852112,1080.286783948555,1856.7406163713138,127,0
1656.6377074222064,795.9410400390625,0.815707266330719,1080.2867549344369,1856.7403320742494,128,0
1656.658540661093,795.610107421875,0.8154923915863037,1080.2875481117546,1856.7403824437627,129,0
1656.679373899864,794.014892578125,0.8152089715003967,1080.2872241746957,1856.7416927252686,130,0
1656.7002071384004,793.2516479492188,0.8150041699409485,1080.2880450016485,1856.7402466676951,131,0
1656.721040376938,789.8802490234375,0.8131327629089355,1080.2869264781132,1856.7408560690276,132,0
1656.741873615242,791.1076049804688,0.8138067722320557,1080.2864712413457,1856.7406627176917,133,0
1656.7627068535471,789.460693359375,0.8129290342330933,1080.2866042654528,1856.7407722348344,134,0
1656.783540091619,788.8006591796875,0.8131226301193237,1080.2865188479159,1856.7410859575152,135,0
1656.8043733295735,788.1312255859375,0.8124802112579346,1080.2862396305914,1856.7406347544154,136,0
1656.8252065672955,787.65380859375,0.812427282333374,1080.2869842470934,1856.7413169357114,137,0
1656.8460398050183,786.5435791015625,0.8117457628250122,1080.2861160666826,1856.7409000964558,138,0
1656.8668730425086,786.4638061523438,0.8114655017852783,1080.2869334596155,1856.7417168221796,139,0
1656.887706279881,783.7078857421875,0.8107703924179077,1080.2850476080332,1856.7413450223398,140,0
1656.908539517137,779.4920654296875,0.808270275592804,1080.2865985242731,1856.7428175884518,141,0
1656.9293727541603,775.2877807617188,0.8065994381904602,1080.285769936425,1856.7421619405598,142,0
1656.9502059910692,773.7915649414062,0.8056546449661255,1080.2864014035242,1856.7420604724746,143,0
1656.97103922786,769.8662719726562,0.8043566942214966,1080.2859241998783,1856.7430147400137,144,0
1656.991872464534,765.149658203125,0.8016484975814819,1080.286611497955,1856.7434521289206,145,0
1657.012705700976,765.0987548828125,0.80162113904953,1080.2852400621664,1856.7433329493533,146,0
1657.033538937302,760.8799438476562,0.7998272180557251,1080.2859093150414,1856.7437545207033,147,0
1657.0543721733945,758.7103271484375,0.798794686794281,1080.2855500208757,1856.7437468575808,148,0
1657.0752054094864,758.130126953125,0.7982053160667419,1080.2852049205535,1856.7430978510617,149,0
1657.0960386452289,757.505859375,0.7979338765144348,1080.2847278489621,1856.742995272894,150,0
1657.1168718809731,757.95849609375,0.7990821599960327,1080.2848790326477,1856.7438274617198,151,0
1657.1377051164836,760.4221801757812,0.800282895565033,1080.284822896056,1856.7438918063817,152,0
1657.158538351878,759.9931030273438,0.7993769645690918,1080.2854657831801,1856.7432527230962,153,0
1657.1793715870385,760.3224487304688,0.7991973757743835,1080.2862944156527,1856.7439986544246,154,0
1657.200204822083,759.1465454101562,0.7990151047706604,1080.2849531876752,1856.7432832279708,155,0
1657.2210380568954,760.2470703125,0.7996442317962646,1080.285502266077,1856.743937184567,156,0
1657.2418712915915,756.9314575195312,0.7985295057296753,1080.2864702761306,1856.7440774813501,157,0
1657.26270452617,760.07568359375,0.7991167306900024,1080.2849961214415,1856.7443538867492,158,0
1657.2835377605165,754.0687866210938,0.7967107892036438,1080.2852398928242,1856.7443538322332,159,0
1657.3043709947456,746.68603515625,0.7933098077774048,1080.2849091534338,1856.7440405416055,160,0
1657.3252042287431,743.3257446289062,0.791461706161499,1080.285184772958,1856.7434351913746,161,0
1657.366870696271,742.8446044921875,0.7916116714477539,1080.2841207981487,1856.7431633925096,162,0
1657.3877039298031,742.2041015625,0.7911748290061951,1080.2836470269744,1856.7448861752434,163,0
1657.471036862065,738.7608032226562,0.7891766428947449,1080.2843533057273,1856.7437975969149,164,0
1657.5127033271485,741.1214599609375,0.7903314232826233,1080.2850777275978,1856.7451536063231,165,0
1657.533536559516,744.2837524414062,0.791935920715332,1080.285427815106,1856.744962378053,166,0
1657.554369791535,747.3994750976562,0.7931075692176819,1080.2852103644202,1856.7446169755433,167,0
1657.596036255221,750.1322021484375,0.7950899600982666,1080.2861477623655,1856.7440026033823,168,0
1657.6168694867733,749.2861938476562,0.7942415475845337,1080.285366565917,1856.743151990766,169,0
1657.679369180266,752.3289794921875,0.7962929606437683,1080.2849088499433,1856.7439965478295,170,0
1657.7210356417404,750.0833740234375,0.7945036888122559,1080.2854901953444,1856.7438307232449,171,0
1657.741868872129,749.129638671875,0.7940044403076172,1080.2860992655865,1856.7427347328523,172,0
1657.762702102401,749.831787109375,0.7941853404045105,1080.2857443043051,1856.7446438182262,173,0
1657.7835353324394,750.2062377929688,0.7947698831558228,1080.284835106785,1856.7436006773528,174,0
1657.804368562245,748.0516967773438,0.7938745021820068,1080.284583429986,1856.7433785307683,175,0
1657.8252017919358,749.3062133789062,0.7945452928543091,1080.284387971034,1856.744359365471,176,0
1657.8460350213925,750.1068725585938,0.7945666313171387,1080.2843894070759,1856.7436205989852,177,0
1657.866868250733,746.9347534179688,0.7932397723197937,1080.2850956656432,1856.7438914977954,178,0
1657.8877014798395,747.58544921875,0.793340802192688,1080.2850294608945,1856.7441984244524,179,0
1657.908534708714,746.3802490234375,0.7929301857948303,1080.2845722527688,1856.7442291875159,180,0
1657.9293679374737,744.7327880859375,0.792522132396698,1080.2841358935007,1856.7441172141396,181,0
1657.9502011659995,742.3802490234375,0.7914180755615234,1080.284378427872,1856.7445658643915,182,0
1657.9710343942916,738.7688598632812,0.7893502712249756,1080.2844974289055,1856.74433058804,183,0
1657.9918676224675,738.96826171875,0.7892178297042847,1080.284517503388,1856.7460369013424,184,0
1658.0127008502936,735.6649169921875,0.7878316640853882,1080.2841001145428,1856.744900849024,185,0
1658.033534078122,735.8728637695312,0.7876854538917542,1080.283466937159,1856.7457170551654,186,0
1658.0543673055995,734.5408935546875,0.7873877286911011,1080.2840944839754,1856.7452117698147,187,0
1658.0752005329605,734.1083984375,0.7871778607368469,1080.2834270079097,1856.7454166165044,188,0
1658.0960337600895,732.2230834960938,0.7861613035202026,1080.2830187535067,1856.7460953152035,189,0
1658.1168669869844,734.468505859375,0.7872109413146973,1080.283660857012,1856.7458874501683,190,0
1658.1377002137642,736.1578979492188,0.7882722616195679,1080.2841528101947,1856.7460475569162,191,0
1658.1585334403105,737.2902221679688,0.7884957790374756,1080.284168075152,1856.744909730431,192,0
1658.179366666624,737.8172607421875,0.7888270020484924,1080.2831593152375,1856.7458524280885,193,0
1658.2001998928215,736.6115112304688,0.7885686159133911,1080.2846588261827,1856.7455512811175,194,0
1658.2210331186684,740.1318359375,0.7898992300033569,1080.2835547593993,1856.7458159812704,195,0
1658.2418663444005,739.638916015625,0.7901479005813599,1080.2841872139231,1856.745118352131,196,0
1658.2626995700155,736.474365234375,0.7884589433670044,1080.2844358207703,1856.7449550180518,197,0
1658.283532795281,736.7830810546875,0.7879374027252197,1080.2846941428927,1856.7460053072314,198,0
