time,flux,flux_err,centroid_col,centroid_row,cadenceno,quality
1437.993062221483,6851.5419921875,2.285761833190918,1630.3033219241393,838.6776339410366,0,0
1438.0138956063488,6772.6416015625,2.2726752758026123,1630.3026330948633,838.6781110020858,1,0
1438.0347289921474,6702.28759765625,2.260684013366699,1630.30170506805,838.678134087264,2,0
1438.055562378644,6635.58203125,2.249582529067993,1630.3007907769959,838.6779965329554,3,0
1438.076395766071,6576.490234375,2.239932060241699,1630.300334398721,838.6782338351306,4,0
1438.0972291539645,6526.95166015625,2.231066942214966,1630.299272596192,838.6782442684132,5,0
1438.1180625425563,6475.41552734375,2.222341775894165,1630.2990105832223,838.6785706395078,6,0
1438.13889593138,6423.41748046875,2.213848829269409,1630.2980953137853,838.6785005601224,7,0
1438.159729320903,6383.02001953125,2.206605911254883,1630.2977809970223,838.6788664880464,8,0
1438.1805627106585,6346.525390625,2.2001466751098633,1630.2972682671775,838.6787932373182,9,0
1438.2013961006485,6308.048828125,2.1936676502227783,1630.2969554297415,838.6787353110377,10,0
1438.2222294908702,6276.337890625,2.1881446838378906,1630.2965089108864,838.6790215101362,11,0
1438.2430628813245,6243.521484375,2.1829442977905273,1630.2959407259025,838.6792568851838,12,0
1438.263896271779,6224.029296875,2.1789700984954834,1630.2959095380083,838.6793765178305,13,0
1438.284729662233,6205.77734375,2.1757633686065674,1630.2958706573197,838.6798390360797,14,0
1438.305563052686,6187.2158203125,2.1730802059173584,1630.2951294795894,838.6793624438875,15,0
1438.3263964431405,6175.640625,2.1709561347961426,1630.2949870300652,838.6797437354677,16,0
1438.347229833362,6157.28173828125,2.16733980178833,1630.2949923803221,838.679198850161,17,0
1438.3680632233516,6148.84228515625,2.165775775909424,1630.295133524008,838.6798083655389,18,0
1438.3888966133404,6142.31201171875,2.164476156234741,1630.2949209842557,838.6798923125048,19,0
1438.4097300030971,6125.8583984375,2.1618802547454834,1630.294500539545,838.6796478937342,20,0
1438.430563392386,6129.26025390625,2.1623804569244385,1630.2946596854467,838.6801445502869,21,0
1438.4513967816765,6123.94970703125,2.161592483520508,1630.2948436071906,838.6805036083595,22,0
1438.472230170501,6120.53662109375,2.1608409881591797,1630.2943692266504,838.6798569692727,23,0
1438.4930635588594,6115.9189453125,2.160104513168335,1630.2943575783036,838.6796056924959,24,0
1438.513896946985,6127.51953125,2.1621854305267334,1630.2946552996375,838.679888135939,25,0
1438.534730334646,6122.84423828125,2.161412239074707,1630.2946040279642,838.6797079608297,26,0
1438.5555637218415,6126.521484375,2.1619796752929688,1630.294819642219,838.6802324733429,27,0
1438.5763971085698,6122.5263671875,2.1612584590911865,1630.294643866855,838.6803300025346,28,0
1438.5972304948336,6123.4609375,2.1613526344299316,1630.2946993297423,838.6801790835835,29,0
1438.6180638803985,6118.8115234375,2.1609435081481934,1630.295064285296,838.680280742038,30,0
1438.63889726573,6124.17431640625,2.161473512649536,1630.29529684287,838.6808956987106,31,0
1438.6597306503636,6132.2529296875,2.162893772125244,1630.2947125987769,838.6804173374418,32,0
1438.680564034532,6125.150390625,2.161626100540161,1630.295241754268,838.6803439456365,33,0
1438.701397418234,6123.95556640625,2.161511182785034,1630.295243564731,838.6807785343818,34,0
1438.7222308012385,6126.8154296875,2.162017583847046,1630.2953614553658,838.6808311877904,35,0
1438.743064183544,6128.37451171875,2.1623241901397705,1630.2951419422861,838.6808007203621,36,0
1438.763897565383,6110.9609375,2.159137725830078,1630.2951517021477,838.6798256614651,37,0
1438.7847309467575,6122.90283203125,2.161264657974243,1630.2951343751706,838.680556520269,38,0
1438.8055643272,6123.17724609375,2.161411762237549,1630.2955158769746,838.6804831189002,39,0
1438.826397707176,6125.791015625,2.161877155303955,1630.2959000631297,838.680398358152,40,0
1438.847231086455,6116.5888671875,2.160343885421753,1630.295597413987,838.6804541217076,41,0
1438.8680644650356,6126.228515625,2.1620519161224365,1630.2955635253643,838.681100155613,42,0
1438.88889784315,6110.36962890625,2.159271001815796,1630.295972694503,838.6805610971104,43,0
1438.9097312203335,6121.12841796875,2.160907030105591,1630.2959764466873,838.6810561498894,44,0
1438.9305645970503,6126.212890625,2.161705255508423,1630.2960700782785,838.6811742237905,45,0
1438.951397973069,6118.21142578125,2.1603569984436035,1630.2961877110768,838.6809058421495,46,0
1438.9722313483894,6134.6025390625,2.163407325744629,1630.2962057213238,838.6812107429472,47,0
1438.9930647227784,6131.74169921875,2.162834644317627,1630.2963417099818,838.6813682914541,48,0
1439.0138980967008,6122.68017578125,2.161163806915283,1630.2963289308634,838.6813868398339,49,0
1439.034731469927,6129.6162109375,2.1628942489624023,1630.296874529512,838.6818024146979,50,0
1439.0555648424538,6133.66064453125,2.163341522216797,1630.2970232938326,838.681863304414,51,0
1439.0763982142812,6132.0908203125,2.1628048419952393,1630.2968732108764,838.6817976868616,52,0
1439.097231585178,6134.97412109375,2.1632437705993652,1630.2971955466014,838.6819431757613,53,0
1439.118064955609,6129.333984375,2.1623916625976562,1630.29703262822,838.6815294957108,54,0
1439.1388983251081,6128.5224609375,2.1623075008392334,1630.2969528286267,838.6820110787689,55,0
1439.1597316941425,6130.841796875,2.1625261306762695,1630.2968021411975,838.6816787225576,56,0
1439.180565062245,6126.96923828125,2.16205096244812,1630.297210546864,838.681451845879,57,0
1439.201398429649,6134.1435546875,2.1631338596343994,1630.2971209632367,838.6821625537324,58,0
1439.2222317965884,6136.72607421875,2.163525342941284,1630.2967675881991,838.6818167387611,59,0
1439.2430651625955,6134.7275390625,2.163280487060547,1630.2975195961899,838.6821781446909,60,0
1439.2638985276708,6133.44140625,2.1629841327667236,1630.2972426673125,838.6818748801875,61,0
1439.284731892281,6131.6025390625,2.1630918979644775,1630.2974625686502,838.6819885523593,62,0
1439.305565256193,6126.16552734375,2.1619174480438232,1630.2972546797735,838.6817325776735,63,0
1439.3263986191735,6123.083984375,2.161297559738159,1630.2979020422206,838.6823025833336,64,0
1439.347231981455,6128.99267578125,2.162236452102661,1630.2976346652856,838.6819892278447,65,0
1439.3680653430386,6126.03369140625,2.161808729171753,1630.2979452527024,838.6824889724845,66,0
1439.3888987039245,6128.275390625,2.1622865200042725,1630.2977118103615,838.6822864096591,67,0
1439.4097320641108,6131.3837890625,2.162717819213867,1630.2977767750672,838.6822184849751,68,0
1439.4305654235982,6124.2646484375,2.1614646911621094,1630.297825257082,838.6821751319952,69,0
1439.4513987821545,6136.62109375,2.163663864135742,1630.2978633094096,838.6825944477156,70,0
1439.4722321400131,6136.6396484375,2.16365647315979,1630.2984994515366,838.6826331824137,71,0
1439.4930654971722,6132.8154296875,2.1629750728607178,1630.2978910002114,838.6824398610956,72,0
1439.513898853633,6138.4775390625,2.163752555847168,1630.2975567274561,838.6820949112134,73,0
1439.5347322093965,6134.94970703125,2.1633589267730713,1630.298480159422,838.683059235647,74,0
1439.5555655642283,6138.00048828125,2.164904832839966,1630.2978962263212,838.6823490677671,75,0
1439.576398918594,6130.51708984375,2.1625256538391113,1630.298429870129,838.6825349798519,76,0
1439.5972322720281,6135.85888671875,2.1633150577545166,1630.2985197281382,838.6828214273181,77,0
1439.6180656247634,6134.41357421875,2.1633944511413574,1630.2983063378597,838.6827213062768,78,0
1439.638898976801,6132.0712890625,2.1627001762390137,1630.2986353764732,838.6830545284056,79,0
1439.65973232814,6130.27197265625,2.162705898284912,1630.2986458482762,838.6829791831759,80,0
1439.6805656787806,6133.3525390625,2.1629600524902344,1630.2985881577627,838.6830329670015,81,0
1439.7013990284895,6134.3232421875,2.1633124351501465,1630.2990744955025,838.6830911636895,82,0
1439.7222323775004,6129.06884765625,2.162323474884033,1630.2989493865402,838.6831309167786,83,0
1439.7430657258128,6131.14208984375,2.1629152297973633,1630.2990462808382,838.6835103932369,84,0
1439.7638990734258,6131.71240234375,2.162869453430176,1630.29870089356,838.6826645934179,85,0
1439.784732420341,6128.3759765625,2.162173271179199,1630.2989062589386,838.6831140544824,86,0
1439.8055657665575,6132.1904296875,2.1628684997558594,1630.298743937084,838.6831082826395,87,0
1439.8263991120755,6130.9150390625,2.162679672241211,1630.2991381330244,838.6835589817041,88,0
1439.8472324566628,6128.53515625,2.1623287200927734,1630.2991741055066,838.6835822197647,89,0
1439.8680658005505,6129.423828125,2.1628878116607666,1630.299068952112,838.6832698561147,90,0
1439.888899143974,6123.4921875,2.1612918376922607,1630.2992405576244,838.6834541618664,91,0
1439.909732486466,6123.8212890625,2.16144061088562,1630.2993508556253,838.6835887821525,92,0
1439.9305658282585,6120.48095703125,2.1607303619384766,1630.2995273936565,838.6834257497859,93,0
1439.951399169353,6118.1650390625,2.160210371017456,1630.2993397965938,838.6834362636175,94,0
1439.972232509515,6115.22216796875,2.160094738006592,1630.2993054521428,838.6836801015652,95,0
1439.9930658492126,6122.4033203125,2.1613805294036865,1630.2996460872043,838.68373717429,96,0
1440.013899187978,6117.94873046875,2.1602330207824707,1630.299446552748,838.6836531317663,97,0
1440.0347325262796,6118.1611328125,2.160400867462158,1630.2995576653907,838.6839620793114,98,0
1440.055565863649,6117.7373046875,2.1604363918304443,1630.2992479882475,838.6842435178639,99,0
1440.076399200319,6115.7763671875,2.159867763519287,1630.299338608603,838.6833496073089,100,0
1440.097232536524,6113.892578125,2.159867286682129,1630.2998849875396,838.6842145258317,101,0
1440.118065871798,6112.65283203125,2.1596145629882812,1630.3000211163878,838.6842822221422,102,0
1440.1388992063726,6106.09423828125,2.1584255695343018,1630.2991438776946,838.6835353599811,103,0
1440.159732540249,6108.1376953125,2.1586976051330566,1630.2998829246587,838.6841400544196,104,0
1440.1805658734274,6106.6689453125,2.1583328247070312,1630.2995887804525,838.6840914509928,105,0
1440.201399205675,6107.1875,2.158416986465454,1630.2995349197922,838.6836334461188,106,0
1440.222232537456,6110.26708984375,2.159133195877075,1630.2994477828406,838.6836719694143,107,0
1440.2430658685385,6111.0810546875,2.1591830253601074,1630.2996687545854,838.6840315691894,108,0
1440.263899198923,6109.6298828125,2.158900737762451,1630.3001796520318,838.6840267293836,109,0
1440.2847325283756,6106.341796875,2.158379077911377,1630.3004878421095,838.6844361386903,110,0
1440.305565857363,6104.9541015625,2.1579980850219727,1630.2998801242522,838.6840674189907,111,0
1440.3263991854185,6107.90966796875,2.158820152282715,1630.2999304540674,838.6843369921127,112,0
1440.3472325130092,6108.513671875,2.1589243412017822,1630.3001058693058,838.6844222802831,113,0
1440.3680658396675,6105.07568359375,2.15813946723938,1630.2998783310986,838.6844090850378,114,0
1440.3888991658614,6103.177734375,2.157991409301758,1630.3004591334177,838.6845219551354,115,0
1440.4097324911236,6103.0830078125,2.1577818393707275,1630.3003191466212,838.6844506138596,116,0
1440.4305658159196,6098.7705078125,2.156846284866333,1630.3001518100232,838.6845557810465,117,0
1440.4513991397848,6101.86376953125,2.157482862472534,1630.3004773211821,838.6843564542307,118,0
1440.472232463184,6098.6669921875,2.156834840774536,1630.3001591464258,838.684387897746,119,0
1440.493065785652,6098.78662109375,2.156980037689209,1630.3003919636935,838.6845864375719,120,0
1440.5138991076528,6097.2216796875,2.156881809234619,1630.3004044971174,838.6845108275654,121,0
1440.534732428725,6099.126953125,2.1573331356048584,1630.300599623153,838.6845972127799,122,0
1440.555565749331,6100.9365234375,2.1574501991271973,1630.3008304189018,838.6849570554533,123,0
1440.5763990690045,6101.375,2.1578636169433594,1630.300692178761,838.684883482335,124,0
1440.597232388213,6095.31298828125,2.1564486026763916,1630.3005743478775,838.6845076034584,125,0
1440.61806570649,6091.2392578125,2.155751943588257,1630.3004727789287,838.68481647246,126,0
1440.6388990243008,6095.4140625,2.156423807144165,1630.3005329554237,838.6846580677328,127,0
1440.6597323411816,6090.2109375,2.1554439067840576,1630.3006468019248,838.6850727890685,128,0
1440.6805656575955,6092.06201171875,2.1558945178985596,1630.3006108543048,838.6849621926523,129,0
1440.7013989733114,6088.1201171875,2.1551737785339355,1630.3007845389209,838.685145651391,130,0
1440.7222322883295,6085.31494140625,2.1547439098358154,1630.3010097711376,838.6850837597716,131,0
1440.7430656026481,6086.5859375,2.155174970626831,1630.3009313714008,838.6852185317547,132,0
1440.7638989160355,6085.1328125,2.1546692848205566,1630.3009612671829,838.6854976693003,133,0
1440.784732228958,6087.29638671875,2.1551144123077393,1630.3011388944526,838.6853196811078,134,0
1440.8055655411804,6086.2216796875,2.1548094749450684,1630.301122412288,838.6853071366533,135,0
1440.826398852706,6086.0869140625,2.15488600730896,1630.3010270688155,838.6856055603898,136,0
1440.847232163765,6085.46240234375,2.154650926589966,1630.3008734956604,838.6854504527672,137,0
1440.868065473893,6079.62109375,2.1536810398101807,1630.3016310895198,838.6854850717979,138,0
1440.888898783323,6077.78369140625,2.1535139083862305,1630.301087099123,838.6853230471409,139,0
1440.909732092287,6079.1455078125,2.153533697128296,1630.3009313788093,838.6852464319535,140,0
1440.9305654003197,6082.23193359375,2.154215097427368,1630.3007385714875,838.6853115837299,141,0
1440.9513987078858,6076.9658203125,2.1533541679382324,1630.3009773674703,838.6853543767104,142,0
1440.972232014754,6075.7138671875,2.1534037590026855,1630.301000228079,838.6854544323576,143,0
1440.993065320691,6076.03271484375,2.152944564819336,1630.301837654591,838.6860276251907,144,0
1441.0138986261618,6074.033203125,2.152632713317871,1630.3009499486318,838.6853485878186,145,0
1441.0555652352425,6057.8662109375,2.1501333713531494,1630.3015675842764,838.6853459393495,146,0
1441.0763985386195,6056.5947265625,2.149881601333618,1630.3015095809337,838.6854974553984,147,0
1441.1388984447885,6051.96337890625,2.149029493331909,1630.3015053506736,838.6850779273998,148,0
1441.180565045719,6055.34765625,2.1496987342834473,1630.3017003710563,838.685591538729,149,0
1441.201398345137,6054.17333984375,2.149306058883667,1630.3013151237762,838.6852418394884,150,0
1441.222231643857,6064.498046875,2.151522159576416,1630.301531945174,838.6857440750036,151,0
1441.2430649421115,6060.2978515625,2.150514841079712,1630.3013010323498,838.6851250937639,152,0
1441.2847315362897,6046.029296875,2.1479954719543457,1630.3014912130798,838.6856071117181,153,0
1441.305564832448,6045.5966796875,2.1478168964385986,1630.3020636145463,838.6858777961943,154,0
1441.3263981279074,6048.8017578125,2.1483640670776367,1630.301032673213,838.6848576834287,155,0
1441.3472314226678,6060.5712890625,2.150820016860962,1630.3012208096166,838.6856915054323,156,0
1441.368064716731,6052.4189453125,2.1490676403045654,1630.301254445819,838.6852106442462,157,0
1441.3888980103284,6057.7822265625,2.1499578952789307,1630.3017835319333,838.6862295304222,158,0
1441.4097313032275,6050.8984375,2.14877986907959,1630.301483186252,838.6855012491689,159,0
1441.430564595195,6052.064453125,2.1490213871002197,1630.302038310468,838.6863638828047,160,0
1441.4513978866964,6039.66650390625,2.1467087268829346,1630.3009519706025,838.6846721628827,161,0
1441.4722311777318,6049.111328125,2.148859739303589,1630.3017263076156,838.6861325107478,162,0
1441.4930644678366,6047.681640625,2.148031711578369,1630.3013885340877,838.6851173034734,163,0
1441.5138977574752,6050.21630859375,2.148625612258911,1630.301618178844,838.685908981334,164,0
1441.5347310464153,6058.904296875,2.1501383781433105,1630.3012014173032,838.6858554598588,165,0
1441.555564334658,6056.29931640625,2.149585485458374,1630.3017433826687,838.6863803837382,166,0
1441.576397622202,6047.36328125,2.1483969688415527,1630.3014507468713,838.6857497779572,167,0
1441.597230909047,6055.533203125,2.1506235599517822,1630.3018106664456,838.6863265953498,168,0
1441.618064195426,6053.2421875,2.1493031978607178,1630.3013495963553,838.6858548492221,169,0
1441.638897481107,6059.75244140625,2.150261878967285,1630.301753782904,838.6867190454308,170,0
1441.6597307660886,6058.8212890625,2.150256395339966,1630.3012829103936,838.6857249921143,171,0
1441.680564050373,6062.49609375,2.150740146636963,1630.302175412162,838.686913780228,172,0
1441.7013973341905,6056.9521484375,2.1497597694396973,1630.3019324908958,838.6862064213401,173,0
1441.722230617078,6060.72021484375,2.1503677368164062,1630.3016441078264,838.6863231634932,174,0
1441.7430638994995,6062.23583984375,2.150707244873047,1630.3012837664721,838.6857140561617,175,0
1441.763897181222,6069.3701171875,2.1519100666046143,1630.302437596892,838.6872763789745,176,0
1441.784730462479,6068.68359375,2.151811122894287,1630.3013628415733,838.6860788898952,177,0
1441.8055637428051,6061.27685546875,2.1504878997802734,1630.302297479477,838.6869731489802,178,0
1441.8263970226644,6065.578125,2.151157855987549,1630.3021135008448,838.6868734052878,179,0
1441.8472303018261,6067.19580078125,2.1514689922332764,1630.301937360535,838.6866122221536,180,0
1441.8680635805215,6072.0859375,2.1523709297180176,1630.301994100501,838.686710695524,181,0
1441.8888968582864,6064.4892578125,2.1510303020477295,1630.3017415596719,838.6864379390976,182,0
1441.909730135586,6063.2353515625,2.1508913040161133,1630.3018297716144,838.6868254784818,183,0
1441.930563412186,6069.21923828125,2.15191650390625,1630.3022628311196,838.6870164478626,184,0
1441.9513966880886,6069.95458984375,2.152039051055908,1630.3021012661059,838.6873664607156,185,0
1441.9722299635255,6066.37060546875,2.1513218879699707,1630.3024528798342,838.6872020014283,186,0
1441.993063238263,6070.1640625,2.1521453857421875,1630.3018461238112,838.6870736905086,187,0
1442.013896512302,6065.45068359375,2.1510725021362305,1630.3021480645334,838.6871437532458,188,0
1442.0347297856424,6065.5791015625,2.151853322982788,1630.302024016314,838.6868272484996,189,0
1442.055563058518,6070.896484375,2.152160167694092,1630.3022091624712,838.6874143422174,190,0
1442.076396330695,6073.2529296875,2.1526803970336914,1630.3019039321525,838.6872660098205,191,0
1442.0972296021735,6068.9970703125,2.1517415046691895,1630.3020889098716,838.68719363736,192,0
1442.118062872953,6075.1064453125,2.152928590774536,1630.3025293409694,838.6879839023526,193,0
1442.1388961432665,6070.07275390625,2.1522133350372314,1630.3022589011518,838.6871007976586,194,0
1442.159729412882,6075.30419921875,2.1531007289886475,1630.3022200896094,838.6874115059665,195,0
1442.1805626817986,6073.388671875,2.1532838344573975,1630.3023189664182,838.6874623139818,196,0
1442.2013959502501,6074.4052734375,2.1528258323669434,1630.3019611656619,838.6876319593723,197,0
1442.2222292180036,6074.9453125,2.15299916267395,1630.3020285435312,838.6872360042464,198,0
1442.243062485059,6079.8779296875,2.1541123390197754,1630.3021083050437,838.687598953226,199,0
1442.263895751415,6078.1162109375,2.1538450717926025,1630.3024843906426,838.6878721988833,200,0
1442.2847290173045,6072.64599609375,2.152773141860962,1630.3021487516985,838.6877269629058,201,0
1442.3055622824959,6079.7001953125,2.1536896228790283,1630.3023066563887,838.6879540215558,202,0
1442.3263955469895,6078.24072265625,2.153379201889038,1630.302503157676,838.6880520912318,203,0
1442.347228811017,6086.57275390625,2.1550352573394775,1630.302179305578,838.6877040915418,204,0
