time,flux,flux_err,centroid_col,centroid_row,cadenceno,quality
1517.40830145788,8168.08984375,2.4917657375335693,492.22781623634467,1124.7019223112904,0,0
1517.4291351469656,7728.0439453125,2.424663782119751,492.2211952820724,1124.7058984804103,1,0
1517.4499688387286,7379.80517578125,2.370002508163452,492.21561401896446,1124.7078500428845,2,0
1517.470802532937,7126.95654296875,2.329625129699707,492.21077579642156,1124.7096808394242,3,0
1517.4916362293566,6901.84912109375,2.2930686473846436,492.20706317239626,1124.7107407138046,4,0
1517.512469927989,6724.7919921875,2.2641100883483887,492.2032653920087,1124.7115076892335,5,0
1517.5333036285997,6566.3623046875,2.239755630493164,492.20004063828503,1124.7130882047843,6,0
1517.554137331189,6435.765625,2.2159085273742676,492.1975873278359,1124.7145852705462,7,0
1517.5749710356422,6322.298828125,2.196399688720703,492.19506954628287,1124.7146548234068,8,0
1517.5958047416084,6229.68017578125,2.18070387840271,492.192971622192,1124.716258660481,9,0
1517.61663844932,6150.01318359375,2.1668078899383545,492.1911271626943,1124.7166200339225,10,0
1517.6374721584293,6082.947265625,2.155397415161133,492.1895569116276,1124.717280257084,11,0
1517.6583058690521,6022.89404296875,2.1449127197265625,492.188355515539,1124.7180103879346,12,0
1517.679139580839,5960.1611328125,2.1334893703460693,492.18668957539523,1124.7189702377684,13,0
1517.6999732940226,5903.50634765625,2.1237409114837646,492.1852657083346,1124.7188465359363,14,0
1517.7208070082534,5844.703125,2.1132333278656006,492.1841307717859,1124.7200942409795,15,0
1517.7416407236485,5790.833984375,2.103654384613037,492.18251681250035,1124.7201736428833,16,0
1517.762474439976,5748.2255859375,2.0962090492248535,492.1815221978318,1124.7206407148742,17,0
1517.7833081573503,5699.2421875,2.087285280227661,492.18044808845883,1124.7217706567005,18,0
1517.8041418755402,5655.2685546875,2.079394817352295,492.1794633089823,1124.722611032301,19,0
1517.8249755945444,5618.7919921875,2.0740041732788086,492.1782346202223,1124.7222883180273,20,0
1517.845809314481,5590.87744140625,2.067695140838623,492.1774994417088,1124.7233813309506,21,0
1517.8666430349995,5560.9453125,2.062352418899536,492.1768337024674,1124.7240963854363,22,0
1517.887476756215,5537.74609375,2.0590639114379883,492.1760824416663,1124.7239093934877,23,0
1517.9083104781298,5519.57421875,2.0548202991485596,492.175824533567,1124.7251325361233,24,0
1517.9291442006265,5505.2890625,2.0522537231445312,492.17561876975196,1124.7249816782191,25,0
1517.9499779237049,5483.5458984375,2.048203229904175,492.17500536717534,1124.7246802557047,26,0
1517.9708116472505,5479.390625,2.0475914478302,492.17474252329754,1124.7264442033857,27,0
1517.9916453713777,5466.22705078125,2.0457632541656494,492.1744154758718,1124.7260495645626,28,0
1518.0124790958525,5448.82861328125,2.042266845703125,492.1740969514753,1124.7257687064691,29,0
1518.033312820678,5440.564453125,2.0403900146484375,492.173981565795,1124.7273719144096,30,0
1518.0541465459692,5431.69873046875,2.0392820835113525,492.1733968550678,1124.7276969304266,31,0
1518.0749802716095,5407.25634765625,2.0343682765960693,492.1734790313147,1124.726122049987,32,0
1518.0958139975985,5405.29150390625,2.033864974975586,492.1737265873637,1124.7279663338072,33,0
1518.1166477238205,5393.099609375,2.0319600105285645,492.17319219990316,1124.7280263575562,34,0
1518.1374814503915,5379.35009765625,2.0296125411987305,492.1728579790393,1124.7283994653128,35,0
1518.158315177196,5364.998046875,2.0265698432922363,492.17252685911905,1124.7272515120796,36,0
1518.1791489041175,5361.71044921875,2.026062250137329,492.1722874520879,1124.7289389222062,37,0
1518.1999826313863,5352.6416015625,2.024287700653076,492.17195451464625,1124.7284522463992,38,0
1518.220816358773,5354.0849609375,2.024678945541382,492.17173018630086,1124.7291543055526,39,0
1518.241650086276,5345.94921875,2.023002862930298,492.17207289233306,1124.729151740731,40,0
1518.2624838140114,5338.77099609375,2.0217437744140625,492.17150842895194,1124.7279230177278,41,0
1518.283317541747,5330.455078125,2.0199620723724365,492.17165414144404,1124.7296454139557,42,0
1518.3041512697155,5320.49609375,2.018385648727417,492.1719634009509,1124.7282105422023,43,0
1518.324984997683,5321.75,2.01840877532959,492.1714524705329,1124.7294611179761,44,0
1518.3458187257684,5328.56005859375,2.019911289215088,492.1715959593109,1124.7304829673458,45,0
1518.3666524539703,5318.45361328125,2.0181708335876465,492.17117304798035,1124.7297668958859,46,0
1518.3874861821705,5314.7802734375,2.0172629356384277,492.17119978143575,1124.7307858782121,47,0
1518.4291536385736,5296.55078125,2.0139458179473877,492.17096882128476,1124.7290895893702,48,0
1518.449987366891,5301.1083984375,2.0146753787994385,492.1711805162172,1124.7305841823506,49,0
1518.470821095093,5293.62353515625,2.0132064819335938,492.1708551668101,1124.7303405201442,50,0
1518.4916548232936,5305.91064453125,2.015657424926758,492.1706096739476,1124.732506990518,51,0
1518.5124885516107,5295.77734375,2.0137064456939697,492.1711671883148,1124.7313209240815,52,0
1518.533322279696,5304.955078125,2.015209197998047,492.1707129808806,1124.7314880816948,53,0
1518.554156007898,5305.10595703125,2.0151114463806152,492.1709631106972,1124.7324046004471,54,0
1518.5749897358655,5300.03564453125,2.0143775939941406,492.1710400173274,1124.7319280493857,55,0
1518.5958234639506,5292.333984375,2.0130813121795654,492.1709376124443,1124.7310999935416,56,0
1518.6166571918025,5287.41943359375,2.0125272274017334,492.1715327001049,1124.7316831253431,57,0
1518.6374909196538,5302.2373046875,2.0149149894714355,492.1709512457061,1124.7325236380352,58,0
1518.6583246473906,5292.185546875,2.0131776332855225,492.1711193012324,1124.7313711134009,59,0
1518.6791583750096,5291.0732421875,2.012756109237671,492.1712713561259,1124.7316685850967,60,0
1518.6999921026286,5300.61767578125,2.0148019790649414,492.1709393897103,1124.732132002047,61,0
1518.7208258300138,5284.3623046875,2.0113816261291504,492.1715867401182,1124.73151458035,62,0
1518.741659557285,5302.6640625,2.014940023422241,492.1708528985099,1124.733213808268,63,0
1518.7624932844385,5294.93798828125,2.013476610183716,492.17133450257853,1124.7328716631534,64,0
1518.7833270114752,5300.587890625,2.0156736373901367,492.1710055354819,1124.7323714898776,65,0
1518.8041607383957,5292.77294921875,2.0130343437194824,492.17112991218585,1124.7324082399173,66,0
1518.8249944650838,5297.6884765625,2.014420509338379,492.171436970963,1124.7325968721066,67,0
1518.8458281916555,5301.57958984375,2.0148863792419434,492.17102335130994,1124.7329184140929,68,0
1518.8666619181104,5300.15771484375,2.014840841293335,492.17146619033946,1124.7335293125398,69,0
1518.8874956443324,5293.93310546875,2.013530969619751,492.1715556782782,1124.7328849102678,70,0
1518.9083293704375,5299.00732421875,2.0142786502838135,492.17147934178786,1124.7333919180949,71,0
1518.929163096427,5310.06787109375,2.0166878700256348,492.1709378737637,1124.732923144778,72,0
1518.9499968220675,5296.88818359375,2.0138895511627197,492.17179991578195,1124.7332358801282,73,0
1518.970830547707,5297.50927734375,2.013996124267578,492.17145651530114,1124.7331126186125,74,0
1518.9916642729982,5298.94384765625,2.0141429901123047,492.1716324823168,1124.7336007198332,75,0
1519.0124979981724,5305.76416015625,2.016186475753784,492.17122188703416,1124.7335626950714,76,0
1519.0333317231139,5298.38427734375,2.0140750408172607,492.1712684812062,1124.7328242731537,77,0
1519.0541654479398,5302.51171875,2.014880895614624,492.1716915093304,1124.7334359527435,78,0
1519.0749991725315,5305.96826171875,2.0158023834228516,492.1714511835922,1124.733516923795,79,0
1519.0958328967745,5306.9677734375,2.0158495903015137,492.1713549817963,1124.7332310439087,80,0
1519.1166666209006,5306.21533203125,2.0156028270721436,492.1718118695379,1124.7344856447364,81,0
1519.137500344911,5306.39404296875,2.0158348083496094,492.1712738883248,1124.73345243085,82,0
1519.1583340685725,5309.18505859375,2.0161476135253906,492.17144152495524,1124.7340643325142,83,0
1519.1791677920005,5304.93408203125,2.016070604324341,492.1715558486098,1124.7336780529808,84,0
1519.2000015153121,5305.32470703125,2.01554536819458,492.1716869544849,1124.7342034231897,85,0
1519.220835238275,5303.80419921875,2.015261173248291,492.17149566095827,1124.733269616139,86,0
1519.2416689610045,5306.00732421875,2.01566219329834,492.17177530756106,1124.7342587489509,87,0
1519.262502683618,5305.5703125,2.0158512592315674,492.171675175928,1124.733966033635,88,0
1519.283336405882,5306.80859375,2.0161683559417725,492.1716576945853,1124.7340281900351,89,0
1519.3041701279126,5309.22216796875,2.0161149501800537,492.17170219548143,1124.7345584872357,90,0
1519.3250038497108,5308.94775390625,2.0164055824279785,492.17149539328915,1124.734148500031,91,0
1519.3458375712771,5303.3955078125,2.015169858932495,492.1718952006352,1124.733504462243,92,0
1519.3666712926097,5311.5,2.0167198181152344,492.171861325551,1124.7344352365224,93,0
1519.3875050137085,5306.54443359375,2.015899896621704,492.1715314838703,1124.7337162695164,94,0
1519.4083387344594,5310.0107421875,2.0164072513580322,492.17176650189583,1124.734028948031,95,0
1519.429172454978,5309.5517578125,2.0161654949188232,492.1720982195818,1124.7336513131092,96,0
1519.4500061752624,5304.9638671875,2.015254497528076,492.17169121159554,1124.7328952210332,97,0
1519.4708398953144,5303.40185546875,2.015237808227539,492.1725139317178,1124.7340926446,98,0
1519.4916736151335,5304.77001953125,2.0158233642578125,492.17170039650523,1124.7338347852467,99,0
1519.512507334604,5314.8828125,2.0171420574188232,492.17187247355963,1124.7343212557234,100,0
1519.5333410538415,5306.89794921875,2.0158908367156982,492.1724014325952,1124.7347560644603,101,0
1519.5541747727289,5305.9423828125,2.0154871940612793,492.17181874087225,1124.7338409337076,102,0
1519.5750084913843,5310.60546875,2.016345500946045,492.17194572834796,1124.733966053611,103,0
1519.595842209806,5305.18017578125,2.0156972408294678,492.1718273427109,1124.7339272912704,104,0
1519.6166759279954,5302.865234375,2.014890193939209,492.17188878303926,1124.7328205206354,105,0
1519.6375096458364,5305.56201171875,2.015556573867798,492.1721174855103,1124.734416677534,106,0
1519.6583433633275,5307.6181640625,2.0160253047943115,492.17205405068,1124.7341677927013,107,0
1519.6791770807015,5306.748046875,2.016190767288208,492.1718614455725,1124.7337500529065,108,0
1519.7000107977256,5309.064453125,2.016120433807373,492.17193505147264,1124.733593169719,109,0
1519.7208445144024,5310.640625,2.016371011734009,492.17198459718253,1124.7338950526066,110,0
1519.7416782308464,5308.4453125,2.0162017345428467,492.1722096418995,1124.7346335728114,111,0
1519.7625119469394,5310.58544921875,2.0164403915405273,492.17170049288904,1124.7333494106654,112,0
1519.783345662801,5305.9228515625,2.015617847442627,492.17242214165884,1124.7346187214318,113,0
1519.8041793784296,5312.2978515625,2.0167362689971924,492.1720613265983,1124.7342774807792,114,0
1519.825013093708,5311.24267578125,2.0164194107055664,492.1723367662843,1124.7342339064624,115,0
1519.8458468086385,5313.24365234375,2.017380952835083,492.1721432169927,1124.7344770465495,116,0
1519.8666805233352,5305.97216796875,2.015566349029541,492.17209298815794,1124.733812531225,117,0
1519.8875142376824,5308.96142578125,2.0161662101745605,492.172383031694,1124.7334894506478,118,0
1519.908347951798,5310.5791015625,2.0164573192596436,492.1722073151266,1124.733412533999,119,0
1519.9291816655636,5308.845703125,2.0162124633789062,492.1719643709883,1124.734004840738,120,0
1519.950015379096,5308.7236328125,2.0161654949188232,492.17213887380973,1124.733764343606,121,0
1519.9708490922794,5308.91015625,2.0165512561798096,492.1724441000941,1124.7338468512914,122,0
1519.9916828051137,5312.40869140625,2.016695261001587,492.1722428386407,1124.7339056172198,123,0
1520.012516517715,5308.279296875,2.0165860652923584,492.1721177077634,1124.7335115210099,124,0
1520.0333502300841,5314.15625,2.017016649246216,492.1723658051644,1124.7336637902044,125,0
1520.0541839419875,5312.51171875,2.016780138015747,492.17228548852466,1124.7340136152272,126,0
1520.0750176536567,5313.27294921875,2.017181634902954,492.17262845626414,1124.7340384092095,127,0
1520.0958513649775,5311.654296875,2.0166800022125244,492.1722054466759,1124.7338022927916,128,0
1520.116685076066,5314.66650390625,2.017204523086548,492.1720136856872,1124.73434782387,129,0
1520.1375187868057,5317.1298828125,2.017659902572632,492.1720757814743,1124.7339368966311,130,0
1520.1583524971945,5317.15380859375,2.0176026821136475,492.1720985848702,1124.733967824234,131,0
1520.1791862073505,5310.8544921875,2.0164554119110107,492.17212838443527,1124.7337054078332,132,0
1520.200019917159,5309.3984375,2.016547918319702,492.17264840649614,1124.734230637225,133,0
1520.2208536266176,5318.986328125,2.0181145668029785,492.17265889469144,1124.733866653527,134,0
1520.2416873358425,5314.60791015625,2.0171921253204346,492.17243234003564,1124.733654279823,135,0
1520.2625210447186,5313.927734375,2.017108678817749,492.17220771733776,1124.733521570122,136,0
1520.283354753245,5314.89208984375,2.017350912094116,492.1723116241134,1124.7335164639562,137,0
1520.3041884614236,5317.63134765625,2.0183112621307373,492.17240881486805,1124.733944001148,138,0
1520.3250221693684,5319.498046875,2.0182032585144043,492.1723623233623,1124.733719733803,139,0
1520.3458558769635,5317.68994140625,2.018037796020508,492.1722670127685,1124.7339969642708,140,0
1520.36668958421,5317.38720703125,2.0176517963409424,492.1720346030017,1124.7336144419164,141,0
1520.3875232912235,5313.45458984375,2.0174732208251953,492.1725575390635,1124.7339183423383,142,0
1520.408356997771,5313.78857421875,2.017019748687744,492.1727713287191,1124.7339105432056,143,0
1520.4291907040865,5315.91015625,2.017733573913574,492.17256722568897,1124.733715703541,144,0
1520.4500244100518,5320.23291015625,2.0181920528411865,492.17257143714613,1124.7334846097642,145,0
1520.4708581157856,5313.03369140625,2.016754150390625,492.1716908172736,1124.7330679234153,146,0
1520.4916918210515,5319.01171875,2.0180203914642334,492.1724538975021,1124.7332446414946,147,0
1520.5333592307716,5302.7880859375,2.015556573867798,492.17269096491657,1124.7323988776357,148,0
1520.554192935108,5250.25634765625,2.00553297996521,492.17279548292146,1124.731991950728,149,0
1520.5750266390946,5214.0654296875,1.9987508058547974,492.1728710258816,1124.7320130457674,150,0
1520.5958603428485,5213.89794921875,1.9985933303833008,492.1731484797383,1124.7330386957822,151,0
1520.6166940462535,5213.7744140625,1.9986892938613892,492.17277788001473,1124.7320036950462,152,0
1520.6375277493084,5217.41064453125,1.9993211030960083,492.1725146269294,1124.7322558198648,153,0
1520.6583614520146,5229.79052734375,2.0016064643859863,492.17283870406646,1124.7319156325443,154,0
1520.6791951543714,5285.40234375,2.0117712020874023,492.1726194682916,1124.7311602106665,155,0
1520.700028856379,5307.5302734375,2.015916109085083,492.1725581499863,1124.73132958157,156,0
1520.7208625581534,5311.19384765625,2.0164871215820312,492.17235747300003,1124.731249663865,157,0
1520.741696259463,5307.52099609375,2.0159337520599365,492.17270484340884,1124.7317190684137,158,0
1520.7625299605395,5314.509765625,2.017162561416626,492.1725788180685,1124.7322552309256,159,0
1520.7833636612654,5315.2275390625,2.017676591873169,492.1726944236167,1124.7322832689026,160,0
1520.8041973616441,5317.5888671875,2.017998695373535,492.1724821131817,1124.7320068037768,161,0
1520.8250310616731,5315.76025390625,2.0176029205322266,492.1727558716953,1124.7322287944246,162,0
1520.8458647613525,5311.39111328125,2.017460584640503,492.17257045335475,1124.7318709746307,163,0
1520.8666984607985,5316.2421875,2.017399549484253,492.1725046805265,1124.732175469412,164,0
1520.8875321597789,5318.537109375,2.017930030822754,492.17264381267466,1124.7320223369325,165,0
1520.9083658585273,5320.20361328125,2.018555164337158,492.1724250941443,1124.732066916843,166,0
1520.929199556926,5320.02099609375,2.0182442665100098,492.172580307493,1124.7320244602242,167,0
1520.9500332548596,5314.650390625,2.017033815383911,492.1720734433415,1124.7315029261133,168,0
1520.9708669525594,5318.95654296875,2.018019914627075,492.1725513422428,1124.7321996208102,169,0
1520.99170064991,5318.55224609375,2.018434762954712,492.1725455352106,1124.7317271936063,170,0
1521.0125343469126,5314.818359375,2.017230749130249,492.1726740481268,1124.7315990227794,171,0
1521.0333680435651,5318.1787109375,2.017921209335327,492.1731077901104,1124.7321341709185,172,0
1521.0542017399844,5319.19189453125,2.0181665420532227,492.1724740802142,1124.7319940965906,173,0
1521.075035435938,5318.3056640625,2.0177853107452393,492.172396962327,1124.7317849106078,174,0
1521.0958691315432,5322.556640625,2.0187783241271973,492.172528054888,1124.7321891504832,175,0
1521.1167028269147,5326.701171875,2.0195133686065674,492.17273412918996,1124.7323888169713,176,0
1521.137536521821,5320.35986328125,2.0180938243865967,492.17275734145903,1124.7316343870655,177,0
1521.1583702163784,5321.302734375,2.0183064937591553,492.17265015744135,1124.7312406657425,178,0
1521.179203910702,5322.28369140625,2.0185375213623047,492.17277076674145,1124.7319576759235,179,0
1521.2000376045605,5320.60400390625,2.0181989669799805,492.17255946971335,1124.7319585187927,180,0
1521.2208712981865,5325.0810546875,2.019109010696411,492.1725883926906,1124.7317952837975,181,0
1521.241704991463,5324.0673828125,2.018986463546753,492.1725987028245,1124.7309189136888,182,0
1521.262538684274,5320.74609375,2.0182127952575684,492.17212961397786,1124.7312144187404,183,0
1521.2833723768522,5321.595703125,2.018683433532715,492.172744817054,1124.7314594552636,184,0
1521.3042060690805,5321.5966796875,2.0183217525482178,492.1723343323886,1124.7312186600518,185,0
1521.3250397608435,5321.44140625,2.018214702606201,492.17274184295695,1124.7314420802047,186,0
1521.345873452374,5323.76025390625,2.019028663635254,492.17237104332446,1124.7312232317145,187,0
1521.3667071435543,5322.54052734375,2.018587112426758,492.17272125072805,1124.7315267913227,188,0
1521.3875408343865,5323.77197265625,2.018892288208008,492.17239506066403,1124.7310602457928,189,0
1521.4083745247526,5320.984375,2.01829195022583,492.17283470351026,1124.731030869266,190,0
1521.4292082148854,5320.126953125,2.0181055068969727,492.1728833352301,1124.7316783831484,191,0
1521.4500419046694,5325.36865234375,2.019397020339966,492.1723601858733,1124.7311241358823,192,0
1521.4708755941047,5321.40478515625,2.018690824508667,492.1728203034124,1124.7310230659325,193,0
1521.4917092830735,5324.552734375,2.018911361694336,492.17259870849995,1124.7304655389373,194,0
1521.5125429718105,5324.71875,2.0193915367126465,492.17278523412693,1124.7312391632518,195,0
1521.5333766601966,5321.14453125,2.018303632736206,492.1727401019518,1124.7312352216577,196,0
1521.5542103481175,5323.4765625,2.019054651260376,492.1728565312663,1124.7309995867913,197,0
1521.575044035807,5329.07568359375,2.0197439193725586,492.1726687650215,1124.7311420194728,198,0
1521.5958777230305,5328.91455078125,2.01989483833313,492.1722847132165,1124.7305694230429,199,0
1521.6167114100194,5323.2705078125,2.019252300262451,492.17239579903173,1124.730408882433,200,0
1521.6375450965434,5319.6533203125,2.0181868076324463,492.1728099112867,1124.7301738926903,201,0
1521.6583787828345,5322.060546875,2.0185623168945312,492.1729294615022,1124.7305793434243,202,0
1521.679212468661,5320.20654296875,2.019303798675537,492.1728465728438,1124.730432888577,203,0
