time,flux,flux_err,centroid_col,centroid_row,cadenceno,quality
1543.6206605588864,51960.4453125,6.245582580566406,937.6289825779435,1087.4806069994347,0,2048
1543.641494118355,47009.4296875,5.939571857452393,937.641314525161,1087.4796064644277,1,2048
1543.6623276796854,45123.57421875,5.819084644317627,937.6475920183593,1087.479028975119,2,2048
1543.6831612419473,43751.5546875,5.729517459869385,937.6515961977423,1087.4791892774704,3,2048
1543.703994805606,42573.3203125,5.65147590637207,937.6556024670674,1087.4788122650539,4,2048
1543.724828370196,41391.3515625,5.571933269500732,937.6567920405512,1087.4796583648117,5,2048
1543.7456619361835,40617.625,5.519407749176025,937.6593842949566,1087.478871753353,6,2048
1543.7664955031019,39809.625,5.464083671569824,937.6609217708422,1087.4801316843525,7,2048
1543.787329070487,39180.73046875,5.420446872711182,937.6619775799587,1087.4805705072458,8,0
1543.808162639268,39175.25,5.419918060302734,937.651116791493,1087.466150116803,9,0
1543.8289962085146,38577.2265625,5.378202438354492,937.6534000766522,1087.4644586953725,10,0
1543.849829778693,38066.4921875,5.342374801635742,937.6532562343112,1087.4657591588814,11,0
1543.870663349337,37610.51171875,5.31013298034668,937.654989616018,1087.466038625131,12,0
1543.8914969204466,37273.56640625,5.285926818847656,937.6562223558649,1087.466075219505,13,0
1543.912330492487,36920.921875,5.260800838470459,937.6588963336549,1087.4649752384637,14,0
1543.9331640649925,36356.6328125,5.22039270401001,937.6595133195477,1087.465291591609,15,0
1543.9748312109386,35575.33984375,5.16368293762207,937.6639945710506,1087.4641187875159,16,0
1543.995664784376,35248.23828125,5.139701843261719,937.665066677202,1087.465047455275,17,0
1544.0164983587447,34924.81640625,5.115980625152588,937.6649551637317,1087.4650696926758,18,0
1544.0373319326486,34646.01953125,5.095304489135742,937.6674022262658,1087.4655223966588,19,0
1544.0581655074834,34401.0078125,5.077147006988525,937.6682881434706,1087.4655073184401,20,0
1544.0789990818525,34169.3046875,5.059981346130371,937.670251588997,1087.4650251184873,21,0
1544.0998326571525,33956.66796875,5.044305801391602,937.6701014257947,1087.4655170013898,22,0
1544.1206662319864,33775.60546875,5.030573844909668,937.6714746942569,1087.4654759178657,23,0
1544.1414998072873,33581.1875,5.0158867835998535,937.6715916963832,1087.466098572443,24,0
1544.1623333825885,33407.1171875,5.0029377937316895,937.6723916895515,1087.4663729203942,25,0
1544.183166957889,33319.9375,4.996325492858887,937.67254297352,1087.4663753689374,26,0
1544.2040005331896,33252.8828125,4.991145610809326,937.6729814044553,1087.4667225163043,27,0
1544.2248341084896,33170.2421875,4.985025882720947,937.6733916601171,1087.4664104109222,28,0
1544.2456676833244,33091.0,4.979159355163574,937.6729611974366,1087.4667286150784,29,0
1544.2665012586244,33039.3046875,4.974946022033691,937.6734942797771,1087.4664096219678,30,0
1544.2873348339244,32994.2421875,4.971454620361328,937.6744333261983,1087.4667814022002,31,0
1544.3081684087597,32941.875,4.967541217803955,937.673125130438,1087.4668769536067,32,0
1544.3290019840601,32878.09375,4.962865352630615,937.6743132656718,1087.4668808941697,33,0
1544.3498355584286,32787.30078125,4.95586633682251,937.674199435781,1087.467383001517,34,0
1544.3706691332636,32703.619140625,4.949476718902588,937.6745988011528,1087.4673469309141,35,0
1544.3915027076337,32572.677734375,4.939538955688477,937.6747167586955,1087.467504248762,36,0
1544.4123362820023,32516.2265625,4.935188293457031,937.6750852999596,1087.4673548657317,37,0
1544.433169855906,32469.97265625,4.931787014007568,937.6755933486864,1087.4676155421482,38,0
1544.4540034293425,32451.71875,4.930156707763672,937.6754469229528,1087.4679076428445,39,0
1544.4748370027805,32386.71875,4.925246238708496,937.6762875105536,1087.4673035821975,40,0
1544.4956705762183,32364.798828125,4.923643589019775,937.675460420474,1087.4677260456767,41,0
1544.5165041491905,32284.9140625,4.917542934417725,937.6743741453354,1087.4681711617195,42,0
1544.5373377216965,32357.14453125,4.922975540161133,937.6751348535734,1087.4678380475043,43,0
1544.5581712937378,32336.724609375,4.921338081359863,937.6759365092768,1087.4685416270672,44,0
1544.579004865779,32280.654296875,4.917049884796143,937.6751643680501,1087.4682284039002,45,0
1544.5998384373534,32254.2734375,4.915117263793945,937.6746747251515,1087.4688459250917,46,0
1544.6206720084633,32259.59765625,4.915402412414551,937.6745878497642,1087.4686831329388,47,0
1544.6415055791076,32227.296875,4.913015842437744,937.6749627705453,1087.46843581019,48,0
1544.6623391497506,32231.3671875,4.913596153259277,937.674932858495,1087.4687140886874,49,0
1544.6831727199278,32228.9921875,4.913213729858398,937.6743109640704,1087.4691621128686,50,0
1544.7040062891756,32221.66015625,4.912705421447754,937.6742572809561,1087.4687078913216,51,0
1544.7248398584225,32223.072265625,4.912703514099121,937.6748080079946,1087.4689759884905,52,0
1544.7456734272037,32263.41015625,4.91562032699585,937.6754285070174,1087.4691257257005,53,0
1544.7665069955196,32267.15625,4.915857315063477,937.6760252419014,1087.4688825148976,54,0
1544.787340563369,32274.078125,4.91660213470459,937.6753757399393,1087.4687130544735,55,0
1544.808174130753,32227.53125,4.913052082061768,937.6751031302332,1087.469165442057,56,0
1544.8290076976705,32260.0625,4.915433883666992,937.6751774004381,1087.4692267619744,57,0
1544.8498412641238,32303.615234375,4.9185686111450195,937.6763359769318,1087.468858654982,58,0
1544.8706748301115,32271.9140625,4.916292667388916,937.6762614066749,1087.4693320672363,59,0
1544.891508395167,32250.37109375,4.914747714996338,937.6767540677523,1087.4693947168728,60,0
1544.9123419602215,32245.466796875,4.914626598358154,937.6760478050481,1087.4686412437213,61,0
1544.9331755248127,32171.18359375,4.9089274406433105,937.6748424231555,1087.4698599034973,62,0
1544.9540090884716,32122.77734375,4.904660224914551,937.672674048703,1087.4698451899214,63,0
1544.9748426516644,32138.837890625,4.9060468673706055,937.6738128517719,1087.469409364947,64,0
1544.9956762143925,32091.6796875,4.902589797973633,937.6739316344652,1087.4690574154613,65,0
1545.016509776654,32147.9609375,4.906662464141846,937.6744511431397,1087.4694805317893,66,0
1545.0373433384493,32176.34375,4.908886909484863,937.6757300376198,1087.469182431435,67,0
1545.0581768993145,32171.4375,4.908441066741943,937.6756843190436,1087.4694156537826,68,0
1545.0790104601797,32167.078125,4.908097267150879,937.675228804149,1087.4694223926297,69,0
1545.0998440201129,32151.296875,4.907308578491211,937.675437874177,1087.4692442907872,70,0
1545.1206775791145,32141.67578125,4.90636682510376,937.6753272468364,1087.4691985185461,71,0
1545.1415111381175,32132.572265625,4.90555477142334,937.6760825679647,1087.4692803897087,72,0
1545.162344696189,32103.6796875,4.903328895568848,937.6753196461124,1087.4692802567658,73,0
1545.1831782537934,32079.58984375,4.901450157165527,937.6737048052481,1087.4697271343553,74,0
1545.2040118109335,32033.45703125,4.897839546203613,937.6728604980267,1087.4693006670882,75,0
1545.224845367141,32006.03515625,4.895881175994873,937.6721287153484,1087.4692732205658,76,0
1545.2456789228836,32000.740234375,4.895684719085693,937.673311054389,1087.4697513100741,77,0
1545.266512477695,32019.759765625,4.896832466125488,937.6747019525358,1087.4694169713441,78,0
1545.2873460325059,32046.58984375,4.898952960968018,937.6744227794811,1087.468966904508,79,0
1545.3081795863854,32058.73046875,4.899813175201416,937.6748170167424,1087.4690642387902,80,0
1545.329013139335,32050.41796875,4.899086952209473,937.6742887823104,1087.4696543178368,81,0
1545.3498466918181,32029.10546875,4.897616386413574,937.6747489252634,1087.4685372532867,82,0
1545.370680243835,31991.6484375,4.894672393798828,937.6743180929057,1087.469550997929,83,0
1545.3915137949216,32030.3125,4.897756576538086,937.6746697921647,1087.4686610797146,84,0
1545.412347345541,31992.421875,4.89493989944458,937.6737844106149,1087.4689960299436,85,0
1545.4331808956954,31998.90625,4.895318984985352,937.6744666107973,1087.4691067016452,86,0
1545.4540144449184,31983.615234375,4.894062042236328,937.674188615008,1087.4685906528923,87,0
1545.4748479936761,31953.0390625,4.891826629638672,937.6740858593996,1087.4685579227719,88,0
1545.4956815415017,31958.951171875,4.892284870147705,937.6740116548432,1087.4689845366215,89,0
1545.5165150888633,31984.81640625,4.8943328857421875,937.6740131090032,1087.468997573067,90,0
1545.537348635293,31991.9375,4.894801139831543,937.6734064069609,1087.4682979512904,91,0
1545.5581821812566,31973.90234375,4.89323091506958,937.6743361193376,1087.4683873041479,92,0
1545.579015726289,31991.88671875,4.89503812789917,937.6735457402957,1087.468338255439,93,0
1545.599849270855,31981.056640625,4.893843173980713,937.6734778785366,1087.4684577527921,94,0
1545.62068281449,31957.99609375,4.892183780670166,937.6733233332278,1087.4685547325487,95,0
1545.6415163576598,31962.90625,4.892457962036133,937.6734587144717,1087.4682584634238,96,0
1545.662349900364,31974.63671875,4.893380165100098,937.6736388320235,1087.4690249944201,97,0
1545.6831834416705,31976.859375,4.893585681915283,937.6728243788599,1087.468487496329,98,0
1545.7040169829775,31963.83984375,4.8925461769104,937.6734093475745,1087.4678932999607,99,0
1545.7248505233533,31970.3359375,4.893189907073975,937.6729311204747,1087.4677468193781,100,0
1545.7456840627983,31985.08984375,4.894080638885498,937.6733222132432,1087.468215582749,101,0
1545.7665176017777,31949.0859375,4.891353607177734,937.6730510311451,1087.4677795610105,102,0
1545.787351139824,31987.85546875,4.894338130950928,937.6726884018849,1087.468159134735,103,0
1545.80818467694,31950.99609375,4.8916401863098145,937.6727300596433,1087.4680155493245,104,0
1545.8290182140558,31979.953125,4.8938727378845215,937.6716118117454,1087.4678109656832,105,0
1545.8498517497746,31967.20703125,4.892908096313477,937.6730866470217,1087.4678560823745,106,0
1545.870685285028,31975.359375,4.893375396728516,937.6725200966516,1087.4676198725776,107,0
1545.89151881935,31985.77734375,4.894119739532471,937.6724646232535,1087.4677731826364,108,0
1545.9123523532066,31992.1484375,4.894750118255615,937.6725376343561,1087.4678457482853,109,0
1545.9331858861324,31980.201171875,4.894085884094238,937.6720719020307,1087.4679166425174,110,0
1545.954019418592,31984.1171875,4.894021034240723,937.6727662008511,1087.4673304034936,111,0
1545.9748529501194,31979.73046875,4.893856048583984,937.6715234417895,1087.467260374644,112,0
1545.9956864811825,31953.27734375,4.892019748687744,937.6711431479728,1087.466837062146,113,0
1546.016520010847,31950.96875,4.891562461853027,937.6713125078857,1087.4674518072613,114,0
1546.0373535405124,31941.197265625,4.8908162117004395,937.6702264408848,1087.467371438715,115,0
1546.0581870687804,31933.7265625,4.890313625335693,937.6704301780273,1087.4673323377003,116,0
1546.0790205965832,31924.900390625,4.889437675476074,937.6694891679685,1087.4673683643175,117,0
1546.099854123921,31942.74609375,4.89096736907959,937.670735454658,1087.4669113029745,118,0
1546.120687650327,31894.02734375,4.887369155883789,937.670119711628,1087.467084783091,119,0
1546.1415211758017,31884.09375,4.8866987228393555,937.6687170927216,1087.4671835963954,120,0
1546.162354700344,31850.23828125,4.883964538574219,937.6692341943085,1087.4669450324216,121,0
1546.1831882244214,31912.72265625,4.888955116271973,937.6690410013541,1087.4671621770658,122,0
1546.2040217475678,31862.107421875,4.884801387786865,937.6688666935689,1087.4667129455977,123,0
1546.224855270248,31916.90234375,4.888916492462158,937.6682645100002,1087.4670004731524,124,0
1546.245688791997,31878.525390625,4.885980606079102,937.6693047582667,1087.4668598693588,125,0
1546.2665223128145,31895.5703125,4.887203693389893,937.6679348994877,1087.4662259165837,126,0
1546.2873558331667,31870.263671875,4.885505199432373,937.6687093057639,1087.4665966603493,127,0
1546.3081893525884,31855.69921875,4.8842034339904785,937.6677319103393,1087.4663373833346,128,0
1546.329022871078,31868.236328125,4.885378837585449,937.6679900428627,1087.4658494936762,129,0
1546.3498563886365,31889.63671875,4.886903285980225,937.66797890111,1087.46665517072,130,0
1546.3706899057286,31904.21484375,4.887981414794922,937.6695733316241,1087.4654710621232,131,0
1546.4123569375856,31924.4296875,4.889553070068359,937.6704502448042,1087.4665523433391,132,0
1546.433190452349,31924.763671875,4.8896894454956055,937.6705777634293,1087.465575465852,133,0
1546.4540239661815,31879.58203125,4.886033535003662,937.6684508770982,1087.4665075718895,134,0
1546.474857479549,31967.82421875,4.892893314361572,937.6699988440525,1087.4657718582516,135,0
1546.4956909919856,31932.7265625,4.890202522277832,937.670363326686,1087.4660037251165,136,0
1546.5165245034905,31980.75390625,4.893954277038574,937.6708799958178,1087.4654410373523,137,0
1546.537358014064,31949.3203125,4.892046928405762,937.6706926350399,1087.465350030676,138,0
1546.5581915241714,31935.23828125,4.89023494720459,937.6701004602699,1087.4651341961471,139,0
1546.579025033347,31929.03515625,4.889834403991699,937.6698675058568,1087.4653053377772,140,0
1546.5998585415919,31924.89453125,4.889626502990723,937.6696577618147,1087.4661101256575,141,0
1546.6206920493714,31994.51171875,4.894885540008545,937.670955162598,1087.4648229157956,142,0
1546.641525556219,31915.46875,4.888914108276367,937.6693737485251,1087.466010907108,143,0
1546.6623590621357,31938.6640625,4.890568733215332,937.6694188341717,1087.4666643907792,144,0
1546.6831925671215,31951.25390625,4.891723155975342,937.6699505233864,1087.464776803556,145,0
1546.7040260716417,31947.4765625,4.891446113586426,937.6695997391471,1087.4649221304892,146,0
1546.7248595752294,31882.1875,4.886537075042725,937.6679538253629,1087.4659096171943,147,0
1546.7456930778867,31931.556640625,4.890042304992676,937.669242982901,1087.4655671765483,148,0
1546.7665265800783,31963.8515625,4.8925251960754395,937.6686344962926,1087.464760882227,149,0
1546.787360081338,31916.83984375,4.889100074768066,937.6691484988271,1087.4648568221296,150,0
1546.8081935816665,31955.21875,4.891979694366455,937.6688065580299,1087.464605344931,151,0
1546.829027081063,31912.97265625,4.888735294342041,937.6685081106197,1087.4650456392574,152,0
1546.8498605799946,31927.05859375,4.890315532684326,937.6669602231747,1087.465342311032,153,0
1546.8706940779955,31948.6640625,4.891384601593018,937.6678214580813,1087.4639185721283,154,0
1546.891527575065,31947.333984375,4.891219139099121,937.6690094506737,1087.4647051253482,155,0
1546.9123610712024,31963.171875,4.892465591430664,937.6682588463627,1087.4641074652322,156,0
1546.9331945668746,31935.921875,4.890720367431641,937.6673348952174,1087.4644713975592,157,0
1546.95402806115,31987.0859375,4.894359588623047,937.6684791860582,1087.463467632934,158,0
1546.974861555425,31968.2578125,4.893276691436768,937.6689375044142,1087.4631823205,159,0
1546.9956950483024,31984.705078125,4.894026279449463,937.6684233046203,1087.463552143972,160,0
1547.016528540249,32011.5,4.89625358581543,937.6691919584807,1087.4634536245762,161,0
1547.03736203173,32000.09765625,4.895216464996338,937.6691609827851,1087.4631261196103,162,0
1547.0581955222794,32048.3515625,4.8991193771362305,937.6699222658926,1087.4633558601274,163,0
1547.0790290123641,32041.296875,4.898723602294922,937.6697669797961,1087.462946484956,164,0
1547.099862501052,32059.615234375,4.899872303009033,937.6696890004054,1087.4625454848733,165,0
1547.1206959892734,32039.888671875,4.898567199707031,937.6698055762156,1087.4625663304341,166,0
1547.141529476563,32062.076171875,4.900106430053711,937.6696116779809,1087.462767767459,167,0
1547.1623629629216,32065.1875,4.900429725646973,937.6700351962457,1087.4623807574364,168,0
1547.1831964483495,32073.109375,4.901113986968994,937.669830758365,1087.4624131896658,169,0
1547.204029933311,32063.8671875,4.900185585021973,937.6695802292787,1087.4623923504723,170,0
1547.2248634173416,31979.4765625,4.89379358291626,937.6678594889838,1087.4623562890556,171,0
1547.2456969004404,31950.98828125,4.891584873199463,937.666536396138,1087.462835717743,172,0
1547.2665303826088,32001.8671875,4.895618438720703,937.6677472920892,1087.4622153242278,173,0
1547.287363864311,31928.017578125,4.8899102210998535,937.6661154745982,1087.4621847576443,174,0
1547.3081973446165,31949.626953125,4.89149284362793,937.6666847513685,1087.462004932814,175,0
1547.329030824456,31947.265625,4.89145565032959,937.6665416946873,1087.4620862780462,176,0
1547.3498643033636,31966.5,4.892727851867676,937.667599909891,1087.4611491015253,177,0
1547.370697781806,31933.07421875,4.8902587890625,937.6660810200337,1087.4617408301567,178,0
1547.3915312588515,31938.791015625,4.890726566314697,937.666343355372,1087.4621680838366,179,0
1547.4123647354309,31921.28125,4.889354705810547,937.6654544357654,1087.4619723867845,180,0
1547.4331982110793,31929.1953125,4.889969348907471,937.6672687730445,1087.4613049913664,181,0
1547.4540316857974,31934.232421875,4.890314102172852,937.665286327301,1087.4618080268365,182,0
1547.4748651595835,31881.94140625,4.886315822601318,937.6662800423242,1087.461365766303,183,0
1547.495698632904,31946.77734375,4.891304969787598,937.6660715453864,1087.461530148104,184,0
1547.5165321048275,31928.06640625,4.889902591705322,937.6659573797789,1087.4607862094786,185,0
1547.537365576284,31927.1484375,4.889796733856201,937.6653835177742,1087.4611081135643,186,0
1547.5581990468104,31973.94140625,4.89351749420166,937.6661250726758,1087.4608254139816,187,0
1547.579032516871,31957.263671875,4.892444610595703,937.6668385372335,1087.4607823564907,188,0
1547.5998659855345,31947.99609375,4.891348838806152,937.6672034276406,1087.460715959053,189,0
1547.6206994537324,31941.845703125,4.891149044036865,937.6668216470056,1087.460558036226,190,0
1547.641532920534,31972.32421875,4.893617630004883,937.6674227832543,1087.4604166933927,191,0
1547.66236638687,32004.681640625,4.896001815795898,937.6672503723668,1087.460413643707,192,0
1547.6831998527396,31979.05078125,4.893700122833252,937.6680532708364,1087.4599677498832,193,0
1547.704033317212,32038.84375,4.898323059082031,937.6670801001568,1087.4600470022717,194,0
1547.7248667807526,32018.494140625,4.897051811218262,937.6686187194425,1087.460274103669,195,0
1547.7457002438284,32047.587890625,4.898993968963623,937.6674830185701,1087.4595734706047,196,0
1547.7665337059725,32047.73828125,4.899150371551514,937.6684187779681,1087.4591736680422,197,0
1547.7873671671855,32059.515625,4.900016784667969,937.6686334778237,1087.459496945744,198,0
1547.8082006274676,32054.79296875,4.89984130859375,937.668317780334,1087.4594609547348,199,0
1547.8290340868175,32059.6875,4.900025844573975,937.6683267324863,1087.4591852142244,200,0
1547.8498675457026,32037.60546875,4.898329734802246,937.668287356277,1087.459437758508,201,0
1547.870701003191,32069.56640625,4.9007391929626465,937.6683478568137,1087.4591924580707,202,0
1547.8915344602128,32062.34375,4.9002814292907715,937.6688103073114,1087.4586950046053,203,0
1547.9123679163035,32069.939453125,4.900694370269775,937.6688276641951,1087.4592118276162,204,0
1547.9332013714625,32060.3125,4.9001922607421875,937.6684557852387,1087.4586146837503,205,0
1547.9540348261564,32004.9765625,4.895911693572998,937.6677621485624,1087.4586359494385,206,0
1547.9748682794534,31998.48828125,4.89533805847168,937.6662272741644,1087.4581642376172,207,0
1547.995701732284,32023.35546875,4.897161960601807,937.667213864539,1087.4589094306048,208,0
