time,flux,flux_err,centroid_col,centroid_row,cadenceno,quality
1653.952796690606,9175.6201171875,2.6668643951416016,309.7576272492014,1210.4273584452578,0,0
1653.9736305645383,9174.6669921875,2.6668195724487305,309.7570043826629,1210.4268796104338,1,0
1653.9944644356765,9178.0048828125,2.6672117710113525,309.7564172666969,1210.426444715611,2,0
1654.015298304952,9177.02734375,2.667551279067993,309.7565575851449,1210.4262166105368,3,0
1654.0361321719001,9179.66796875,2.667522430419922,309.75601347689036,1210.426213945402,4,0
1654.0569660365186,9193.759765625,2.669250249862671,309.7562635829011,1210.4254893031002,5,0
1654.0777998997405,9209.8671875,2.6715073585510254,309.75722713723945,1210.4244868055596,6,0
1654.0986337610996,9238.490234375,2.675678253173828,309.7573392961829,1210.4246727729944,7,0
1654.1194676210616,9285.005859375,2.6824429035186768,309.75842970242684,1210.423451378998,8,0
1654.1403014791615,9359.9892578125,2.692708730697632,309.7613380105792,1210.4223026590282,9,0
1654.16113533633,9426.357421875,2.702354907989502,309.7644319426185,1210.419435107572,10,0
1654.1819691921014,9505.8408203125,2.71321177482605,309.7659036164135,1210.4198418535027,11,0
1654.2028030464755,9597.2578125,2.725835084915161,309.7676353093413,1210.4188758802766,12,0
1654.2236369003836,9691.9130859375,2.7388856410980225,309.76975031485154,1210.416814287171,13,0
1654.2444707528962,9787.072265625,2.751715660095215,309.77225230448886,1210.4149937033287,14,0
1654.2653046044766,9877.98046875,2.7640209197998047,309.7756852115046,1210.4124197841495,15,0
1654.2861384555904,9983.517578125,2.7788233757019043,309.7769905685367,1210.412453578271,16,0
1654.3069723057752,10056.5263671875,2.788829803466797,309.77860663813135,1210.4115035403393,17,0
1654.3278061550275,10115.3681640625,2.7965335845947266,309.7806971586686,1210.4100597916402,18,0
1654.3486400042784,10174.931640625,2.8045451641082764,309.7830353757943,1210.4088268406288,19,0
1654.3694738525985,10226.73828125,2.8115756511688232,309.7834938558638,1210.4093694615162,20,0
1654.3903077004538,10291.4873046875,2.8201398849487305,309.785275807723,1210.4087460571886,21,0
1654.411141547379,10336.30859375,2.826514720916748,309.7853707893141,1210.4077919833283,22,0
1654.4319753943018,10377.7900390625,2.8320693969726562,309.787656018614,1210.4059779740144,23,0
1654.452809241225,10429.1875,2.838249921798706,309.78836995158383,1210.406026861962,24,0
1654.473643087218,10462.8017578125,2.842872381210327,309.7888673090746,1210.4057335014234,25,0
1654.4944769332105,10502.4814453125,2.848339080810547,309.791688151777,1210.4036931876033,26,0
1654.536144623799,10625.9619140625,2.8644096851348877,309.79263080847,1210.4025844914315,27,0
1654.55697846886,10701.6962890625,2.8743250370025635,309.79246009868837,1210.4028717576534,28,0
1654.577812313921,10734.1083984375,2.8787083625793457,309.79558966257076,1210.4036146401288,29,0
1654.5986461585164,10769.0224609375,2.8830490112304688,309.79701528449976,1210.4026117676126,30,0
1654.619480002646,10782.6083984375,2.885207414627075,309.79808575522776,1210.4015788239453,31,0
1654.6403138467765,10803.0908203125,2.887716054916382,309.79745319490905,1210.4015550472254,32,0
1654.6611476909056,10807.38671875,2.8880856037139893,309.79709904923425,1210.4021737576134,33,0
1654.68198153457,10821.7998046875,2.8901495933532715,309.7969141403217,1210.402470806585,34,0
1654.7028153786996,10816.2587890625,2.8901050090789795,309.79732886616637,1210.402302212905,35,0
1654.7236492218985,10813.0986328125,2.888977289199829,309.7975657202595,1210.4022778035771,36,0
1654.744483065562,10825.5322265625,2.8903729915618896,309.7971003326915,1210.401871609544,37,0
1654.76531690876,10831.53515625,2.891702651977539,309.79662457719843,1210.4025512020835,38,0
1654.7861507519592,10819.2841796875,2.889521598815918,309.7977456871578,1210.4010906226015,39,0
1654.8069845951575,10819.76171875,2.890009880065918,309.79609465229095,1210.4028077275323,40,0
1654.82781843789,10798.384765625,2.8867428302764893,309.795798616845,1210.401561442747,41,0
1654.848652280623,10764.9873046875,2.8834996223449707,309.7966835242962,1210.4030508723893,42,0
1654.869486123356,10727.2490234375,2.8779399394989014,309.79512237381385,1210.4031478593458,43,0
1654.890319966089,10674.310546875,2.8714919090270996,309.7949691820882,1210.4034197413675,44,0
1654.9111538088214,10625.5244140625,2.864447593688965,309.7955034641213,1210.4038766939996,45,0
1654.9319876510885,10585.75,2.85910701751709,309.79331997277995,1210.4041350294212,46,0
1654.9528214933566,10560.0361328125,2.855705976486206,309.7917495050389,1210.4055609668842,47,0
1654.9736553356236,10535.30859375,2.852510929107666,309.79092411043183,1210.406563428217,48,0
1654.99448917789,10503.2705078125,2.8481438159942627,309.79079889690234,1210.4067308334206,49,0
1655.0153230196916,10499.3720703125,2.848701238632202,309.79077959647327,1210.4060437673124,50,0
1655.036156861959,10489.166015625,2.846665382385254,309.79072484667495,1210.4069003175803,51,0
1655.0569907037611,10487.287109375,2.846513032913208,309.78965157032576,1210.405706518551,52,0
1655.0778245455615,10490.8828125,2.8465044498443604,309.7901445232765,1210.407448951908,53,0
1655.098658386898,10494.587890625,2.847071409225464,309.7909283575109,1210.406246696586,54,0
1655.1194922287,10491.751953125,2.8465921878814697,309.7910905983718,1210.4061850191752,55,0
1655.1403260700354,10485.009765625,2.8458187580108643,309.79101970819573,1210.4073957309774,56,0
1655.1611599113705,10474.8974609375,2.8443667888641357,309.79103619306574,1210.4068906365153,57,0
1655.181993752241,10446.4892578125,2.8406522274017334,309.79035377699125,1210.4061925171109,58,0
1655.202827593577,10424.7119140625,2.83766770362854,309.7900242789046,1210.4077698290992,59,0
1655.223661434447,10406.0751953125,2.835369348526001,309.78858503136456,1210.4078965970807,60,0
1655.2444952753165,10385.3671875,2.8344709873199463,309.788680175429,1210.4085728918185,61,0
1655.2653291161869,10329.5244140625,2.8254764080047607,309.78968766571245,1210.406665752456,62,0
1655.2861629570575,10298.58984375,2.820850372314453,309.78744525878466,1210.4065326255416,63,0
1655.3069967974616,10297.359375,2.82071852684021,309.7870655043636,1210.409006823323,64,0
1655.327830637866,10258.583984375,2.8156015872955322,309.7873489201117,1210.4096429283688,65,0
1655.348664478271,10234.9287109375,2.8134632110595703,309.78679530172366,1210.4098581570063,66,0
1655.36949831821,10221.892578125,2.8110151290893555,309.7876068586228,1210.4100188978102,67,0
1655.390332158149,10202.111328125,2.8081603050231934,309.78743404661566,1210.408406344591,68,0
1655.4111659980874,10200.369140625,2.8076212406158447,309.78688252129353,1210.4102003934256,69,0
1655.431999838026,10192.4091796875,2.8068859577178955,309.7870073118044,1210.4081733117102,70,0
1655.4528336774995,10193.09765625,2.8076794147491455,309.786868887082,1210.4107735281955,71,0
1655.473667516972,10207.306640625,2.8089113235473633,309.7851987728613,1210.409269902735,72,0
1655.4945013564457,10206.6201171875,2.8091044425964355,309.7859658155481,1210.408956011575,73,0
1655.515335195453,10218.740234375,2.810914993286133,309.78642439451875,1210.4105198459192,74,0
1655.536169034461,10226.9794921875,2.811652421951294,309.78647903203336,1210.4107155270692,75,0
1655.5570028734676,10235.9794921875,2.812924385070801,309.78666542902675,1210.409943513865,76,0
1655.577836712009,10216.7685546875,2.8100333213806152,309.787629351821,1210.410491316598,77,0
1655.598670550552,10228.2216796875,2.8120501041412354,309.78755584583826,1210.4094661005151,78,0
1655.6195043890934,10219.01953125,2.810971975326538,309.78676497184324,1210.4101672263328,79,0
1655.6403382271697,10200.65234375,2.807950735092163,309.78590259191833,1210.4096762885588,80,0
1655.6611720652459,10178.94140625,2.805098295211792,309.7865691254616,1210.4100806122015,81,0
1655.6820059033225,10174.1201171875,2.8041653633117676,309.7862618816181,1210.411022903067,82,0
1655.702839740933,10151.6669921875,2.801461935043335,309.78560158805317,1210.4115243061124,83,0
1655.723673578543,10136.734375,2.7995097637176514,309.7857317428509,1210.4106267213365,84,0
1655.7445074156876,10123.322265625,2.797776460647583,309.7857137749581,1210.410367610586,85,0
1655.765341253299,10107.3701171875,2.7955565452575684,309.7864287191519,1210.4105042458189,86,0
1655.7861750899785,10111.1357421875,2.7965240478515625,309.7838661914854,1210.4113798632734,87,0
1655.8070089271225,10093.0146484375,2.793663740158081,309.78453124414926,1210.411130794697,88,0
1655.8278427633354,10064.7568359375,2.789809465408325,309.7854711241976,1210.4106845068036,89,0
1655.848676600014,10044.2021484375,2.786810874938965,309.7857132457381,1210.4117392950964,90,0
1655.8695104362291,10030.619140625,2.7853682041168213,309.7841566761792,1210.4124939309365,91,0
1655.8903442724425,10000.337890625,2.780813694000244,309.7839184706259,1210.4128572901736,92,0
1655.91117810819,9973.869140625,2.7787342071533203,309.78316839182895,1210.41194513089,93,0
1655.932011943938,9949.54296875,2.7740917205810547,309.7829124654556,1210.4131879057827,94,0
1655.95284577922,9917.4150390625,2.769662380218506,309.7815426173852,1210.4115721050496,95,0
1655.9736796145025,9903.26953125,2.76832914352417,309.78119711416525,1210.4139957378738,96,0
1655.9945134497846,9870.43359375,2.764399528503418,309.78092661445305,1210.4136303041241,97,0
1656.0153472846,9863.3486328125,2.762376070022583,309.78006748642014,1210.4145422112958,98,0
1656.0361811189518,9841.8916015625,2.7593026161193848,309.77954216579775,1210.4151255316356,99,0
1656.0570149533035,9829.8720703125,2.757840394973755,309.78059077758337,1210.4143146900853,100,0
1656.077848787654,9806.6826171875,2.754730463027954,309.7810998469136,1210.4144159771572,101,0
1656.0986826215385,9820.6201171875,2.756500482559204,309.77923466498413,1210.4139670321583,102,0
1656.1195164554242,9821.8681640625,2.757143259048462,309.7782209607706,1210.4150458327852,103,0
1656.140350288844,9819.1650390625,2.7562506198883057,309.7788145740975,1210.4150154154845,104,0
1656.1611841222634,9793.7412109375,2.753082275390625,309.7807774573725,1210.4150199535518,105,0
1656.182017955217,9799.302734375,2.7538743019104004,309.77994287649614,1210.4150691363266,106,0
1656.2028517881708,9796.3740234375,2.753253221511841,309.7796860276049,1210.4154613368885,107,0
1656.2236856206596,9801.8720703125,2.7538046836853027,309.7793641901853,1210.415039753198,108,0
1656.2445194531474,9792.3232421875,2.752811908721924,309.7785995616584,1210.414723456293,109,0
1656.2653532851696,9769.6923828125,2.750178337097168,309.7785118435672,1210.4148291736492,110,0
1656.286187117192,9757.6884765625,2.748014211654663,309.7782051973639,1210.4157595627967,111,0
1656.3070209487496,9740.005859375,2.7454679012298584,309.77813774781765,1210.4156469707632,112,0
1656.3278547803066,9719.740234375,2.74275803565979,309.7776153221024,1210.4163536605595,113,0
1656.3486886113974,9693.341796875,2.739248275756836,309.7774605260719,1210.416726450844,114,0
1656.3695224424885,9682.2412109375,2.7375893592834473,309.7778144121078,1210.4161583934424,115,0
1656.3903562731139,9689.65625,2.7388410568237305,309.77574450918587,1210.4159117796664,116,0
1656.411190103275,9671.0224609375,2.7358171939849854,309.7759242484722,1210.416416836066,117,0
1656.4320239334345,9652.6123046875,2.733232259750366,309.77842590250674,1210.4164461859873,118,0
1656.4528577635933,9663.8291015625,2.7350807189941406,309.77726997827654,1210.4165009644028,119,0
1656.473691593289,9671.0009765625,2.7361583709716797,309.77735514517923,1210.4167794532623,120,0
1656.4945254225174,9675.068359375,2.736802816390991,309.7768076750709,1210.4168218452207,121,0
1656.5153592517454,9684.0087890625,2.7378275394439697,309.77726594387593,1210.4157892965459,122,0
1656.5361930805084,9696.3134765625,2.739642381668091,309.7767540682494,1210.4157300188085,123,0
1656.557026909271,9692.8564453125,2.7391414642333984,309.77799022541467,1210.4158093470999,124,0
1656.5778607375692,9704.16796875,2.740659236907959,309.77767959950563,1210.4161479082663,125,0
1656.5986945658665,9709.087890625,2.74122953414917,309.7782706765046,1210.4159909002178,126,0
1656.619528393232,9722.4365234375,2.742806911468506,309.77781244428485,1210.415843442625,127,0
1656.6403622210626,9720.966796875,2.742805004119873,309.77776120197666,1210.4153332250883,128,0
1656.6611960484288,9704.068359375,2.7407305240631104,309.77797283647743,1210.4150727571173,129,0
1656.68202987533,9699.6103515625,2.739948272705078,309.77770136470525,1210.4161645872432,130,0
1656.7028637017645,9689.0927734375,2.739070177078247,309.7774997880893,1210.4159160739298,131,0
1656.7236975281985,9695.4052734375,2.73905611038208,309.77794191005427,1210.4162468353697,132,0
1656.744531354633,9691.3095703125,2.738543748855591,309.77776121633013,1210.4161499154918,133,0
1656.7653651806027,9687.947265625,2.7383878231048584,309.7781559581221,1210.415685281365,134,0
1656.786199006106,9680.1455078125,2.737622022628784,309.7765120879571,1210.415213757541,135,0
1656.8070328311435,9688.8603515625,2.738327741622925,309.77726099046777,1210.4156767792083,136,0
1656.8278666561805,9674.814453125,2.736294746398926,309.77762303535576,1210.4159878081277,137,0
1656.848700481219,9670.2919921875,2.7360336780548096,309.777592365683,1210.4158903885623,138,0
1656.8695343053255,9672.564453125,2.736178398132324,309.77707502751724,1210.4160433749876,139,0
1656.890368129431,9669.0703125,2.7360730171203613,309.77706484554085,1210.4159092908403,140,0
1656.9112019535369,9648.4033203125,2.7329514026641846,309.77609179916124,1210.415990030076,141,0
1656.9320357771771,9625.0712890625,2.730316400527954,309.777049642388,1210.4163097209203,142,0
1656.952869600353,9610.2080078125,2.7273857593536377,309.7771221661374,1210.4166540364945,143,0
1656.9737034230625,9606.5341796875,2.7267770767211914,309.7753945119548,1210.41647648934,144,0
1656.9945372457714,9571.1376953125,2.7219245433807373,309.7773841375412,1210.4166772227293,145,0
1657.015371068481,9585.2958984375,2.72414231300354,309.77470915305764,1210.416807218301,146,0
1657.036204890259,9571.3935546875,2.722358226776123,309.7749552869385,1210.416713674537,147,0
1657.0570387120374,9552.705078125,2.7196223735809326,309.77543474755083,1210.4171566093025,148,0
1657.0778725338155,9550.576171875,2.719295024871826,309.7761986453697,1210.4173187448298,149,0
1657.0987063546609,9539.8876953125,2.7182531356811523,309.77794497455943,1210.4164930769707,150,0
1657.119540175508,9552.814453125,2.7196686267852783,309.7749730387151,1210.4170321563447,151,0
1657.140373996355,9559.927734375,2.7206549644470215,309.77437441428793,1210.4165406945149,152,0
1657.161207816271,9565.48828125,2.7212843894958496,309.77523031380105,1210.4168529021263,153,0
1657.1820416361854,9557.904296875,2.7202067375183105,309.77552203142153,1210.4166681630795,154,0
1657.2028754561,9549.9580078125,2.7192766666412354,309.7757806667282,1210.4166700028438,155,0
1657.2237092750852,9547.599609375,2.718808650970459,309.7763979426889,1210.416770356628,156,0
1657.2445430940695,9558.5,2.720634698867798,309.77510639662995,1210.4168330242103,157,0
1657.265376913053,9545.677734375,2.718505382537842,309.7749278205818,1210.4165226096277,158,0
1657.286210731106,9538.392578125,2.717508554458618,309.77517791738853,1210.4173283079667,159,0
1657.3070445491585,9529.890625,2.7161295413970947,309.7756496815427,1210.416465865316,160,0
1657.3278783672108,9510.7275390625,2.7136778831481934,309.7742250796669,1210.416646389485,161,0
1657.369546001454,9466.3583984375,2.7074429988861084,309.7737240331226,1210.4133989314132,162,0
1657.39037981811,9481.5,2.7102646827697754,309.77404816055235,1210.4155686003355,163,0
1657.473715081938,9434.32421875,2.7033941745758057,309.77601887685097,1210.41494470718,164,0
1657.5153827119896,9464.810546875,2.707437515258789,309.7752951968156,1210.4139929852724,165,0
1657.536216526783,9470.1767578125,2.7079641819000244,309.7756241040825,1210.415663852631,166,0
1657.5570503406461,9479.4326171875,2.709404945373535,309.775932891924,1210.4155532320744,167,0
1657.5987179679025,9477.134765625,2.709137201309204,309.7763188391035,1210.4131428880635,168,0
1657.619551781299,9451.8515625,2.7055773735046387,309.77883626446163,1210.414526295691,169,0
1657.6820532186935,9487.4345703125,2.7103474140167236,309.77715299934647,1210.4154267046576,170,0
1657.72372084176,9463.72265625,2.7070536613464355,309.7763579765742,1210.4158978617154,171,0
1657.744554652828,9453.4990234375,2.705679416656494,309.77587980635684,1210.4142554716068,172,0
1657.765388463896,9485.58203125,2.7102043628692627,309.7746421094885,1210.4144646735135,173,0
1657.7862222740314,9461.1357421875,2.706955671310425,309.77661996502343,1210.4161330795814,174,0
1657.807056084168,9465.6611328125,2.7076656818389893,309.77504475727795,1210.4135291414166,175,0
1657.827889894305,9469.806640625,2.70817232131958,309.77473169248236,1210.4136252856788,176,0
1657.8487237035106,9457.4443359375,2.706415891647339,309.7754989507377,1210.4153671184126,177,0
1657.869557512715,9470.861328125,2.7082042694091797,309.775006445809,1210.4153185224684,178,0
1657.8903913214544,9460.685546875,2.707223653793335,309.775430906655,1210.415047612488,179,0
1657.9112251297279,9464.7568359375,2.707791566848755,309.7727866439343,1210.4144143889682,180,0
1657.932058937537,9453.904296875,2.706632375717163,309.7743185789023,1210.4154575376947,181,0
1657.9528927453455,9445.7216796875,2.7048134803771973,309.775094368844,1210.4154163697312,182,0
1657.973726552687,9426.3798828125,2.702310562133789,309.7744335005454,1210.4147052072842,183,0
1657.9945603595634,9440.93359375,2.704465389251709,309.7728403811279,1210.415383505701,184,0
1658.01539416644,9413.4560546875,2.7005977630615234,309.7740283567541,1210.4141594079867,185,0
1658.036227972852,9431.80078125,2.7029905319213867,309.7734773917693,1210.4150701740516,186,0
1658.057061778332,9419.7021484375,2.7011091709136963,309.77406296409566,1210.4150173003206,187,0
1658.077895584277,9429.8681640625,2.702639579772949,309.7724463517424,1210.4158899839845,188,0
1658.0987293892915,9423.36328125,2.701730728149414,309.7716541639774,1210.4152618693938,189,0
1658.1195631943056,9429.5244140625,2.7023329734802246,309.77286595185524,1210.415687873589,190,0
1658.1403969988542,9433.01171875,2.703601360321045,309.77293749826595,1210.4163923571268,191,0
1658.161230802937,9426.12890625,2.702815055847168,309.77264630391795,1210.4152794211589,192,0
1658.182064606554,9452.8740234375,2.705662965774536,309.77044918702904,1210.4161255947085,193,0
1658.202898410171,9422.1162109375,2.70176100730896,309.77387605359814,1210.415388593389,194,0
1658.2237322133226,9438.5126953125,2.7036187648773193,309.7722138828853,1210.4145160023702,195,0
1658.2445660160079,9419.7822265625,2.7011590003967285,309.773314873681,1210.4142100463444,196,0
1658.2653998182286,9423.1279296875,2.70143461227417,309.7725651481048,1210.4127795686995,197,0
1658.286233620449,9419.3720703125,2.701157808303833,309.7719096540157,1210.414387419668,198,0
1658.3070674217379,9433.6025390625,2.703115940093994,309.77202594350587,1210.4171483044167,199,0
1658.3279012230264,9423.4521484375,2.7018744945526123,309.77222129458016,1210.4135289723995,200,0
1658.3487350243154,9417.830078125,2.7009105682373047,309.7711533859167,1210.416024712309,201,0
1658.369568824674,9408.314453125,2.699690818786621,309.7701668518766,1210.4143759937344,202,0
1658.3904026250304,9392.5615234375,2.69769549369812,309.7719609584463,1210.4158370575203,203,0
1658.411236424457,9404.4326171875,2.6990833282470703,309.7705383717722,1210.416706095831,204,0
