time,flux,flux_err,centroid_col,centroid_row,cadenceno,quality
1653.9530987818944,2310.880615234375,1.3838093280792236,132.50829769727892,376.57793250383213,0,0
1653.973932188303,2309.811767578125,1.382321834564209,132.50829174677193,376.57819068915524,1,0
1653.9947655933136,2310.29296875,1.382430076599121,132.5083355260933,376.57699818555716,2,0
1654.0155989964624,2316.53369140625,1.3840166330337524,132.5086553390507,376.5764901530502,3,0
1654.0364323982144,2329.261962890625,1.3878180980682373,132.50788596110309,376.57405679713673,4,0
1654.0572657990344,2353.324462890625,1.3937121629714966,132.50751891984586,376.57146547795327,5,0
1654.078099198458,2376.6201171875,1.4008574485778809,132.50785982136364,376.56888588335505,6,0
1654.0989325964845,2399.23681640625,1.4070760011672974,132.5070260837339,376.5682303403772,7,0
1654.1197659940444,2418.057861328125,1.4115166664123535,132.50711347976372,376.5675965596987,8,0
1654.140599390674,2439.90673828125,1.417253851890564,132.50773217410133,376.56714496543776,9,0
1654.1614327868374,2465.73583984375,1.425087332725525,132.50791551869006,376.5660212716198,10,0
1654.182266182536,2489.816650390625,1.4304906129837036,132.50841707368755,376.56680696634504,11,0
1654.2030995777675,2516.881591796875,1.4377559423446655,132.5081724268749,376.5663609705051,12,0
1654.223932972534,2547.71923828125,1.4464761018753052,132.5082270227143,376.5659975106028,13,0
1654.2447663668358,2572.61962890625,1.452062964439392,132.5084450697275,376.5643613967326,14,0
1654.2655997611364,2595.56640625,1.4579294919967651,132.5087231833129,376.5641657197896,15,0
1654.286433155437,2620.7958984375,1.4645131826400757,132.5091028181295,376.56377252258545,16,0
1654.3072665497389,2630.197998046875,1.468108057975769,132.50895847424894,376.5636691703584,17,0
1654.3280999435744,2643.920654296875,1.4705942869186401,132.5096240370861,376.56369994586083,18,0
1654.348933337875,2652.881591796875,1.47294020652771,132.51046359063972,376.5640249404507,19,0
1654.3697667321755,2660.9873046875,1.475036382675171,132.50909322656543,376.5639118661901,20,0
1654.3906001264763,2674.431884765625,1.478531837463379,132.5099163601937,376.56451750348924,21,0
1654.4114335207785,2681.656494140625,1.480206847190857,132.509566699578,376.5641270786362,22,0
1654.432266915079,2685.8603515625,1.4814831018447876,132.51043005525537,376.5636462525647,23,0
1654.453100309845,2696.2666015625,1.483980655670166,132.51100158567058,376.5630511183179,24,0
1654.4739337046121,2700.938720703125,1.485425353050232,132.5102379588983,376.5640073551179,25,0
1654.494767099844,2708.682373046875,1.4872573614120483,132.5116858061772,376.56335142084606,26,0
1654.536433890775,2737.073974609375,1.4945768117904663,132.5112727571134,376.5625973871326,27,0
1654.557267286473,2756.706787109375,1.499473214149475,132.5106190548601,376.56204827077005,28,0
1654.578100682637,2760.690673828125,1.5005223751068115,132.5115697684136,376.5629376352884,29,0
1654.5989340788005,2768.67333984375,1.5028849840164185,132.51174120756377,376.5628668824246,30,0
1654.6197674749642,2774.62255859375,1.5042932033538818,132.51147357458353,376.5623459395079,31,0
1654.640600872059,2782.54443359375,1.5061626434326172,132.5123859576591,376.56223492630096,32,0
1654.661434268688,2794.996337890625,1.50938081741333,132.51170684219193,376.56139548605665,33,0
1654.6822676662491,2811.15478515625,1.5132255554199219,132.51101468671214,376.5592787435657,34,0
1654.7031010638095,2829.2431640625,1.5175474882125854,132.5119033350074,376.55737014371044,35,0
1654.72393446137,2840.112548828125,1.5206639766693115,132.5113606423601,376.5566262168617,36,0
1654.744767859396,2839.869873046875,1.5202733278274536,132.51122795294094,376.5566344945073,37,0
1654.7656012574216,2839.10400390625,1.5205143690109253,132.51151342294287,376.5569630629368,38,0
1654.7864346559145,2831.89892578125,1.5179986953735352,132.5123057258365,376.5571268286846,39,0
1654.8072680548726,2827.507568359375,1.5171936750411987,132.51142186514994,376.5584923106918,40,0
1654.8281014533636,2821.4208984375,1.515515923500061,132.5119655623569,376.55735282792256,41,0
1654.848934852787,2808.423583984375,1.5123658180236816,132.51267435970348,376.55962031079247,42,0
1654.8697682522106,2798.84912109375,1.5101962089538574,132.51193215490534,376.56004602111324,43,0
1654.890601651634,2780.793701171875,1.5058680772781372,132.51246232374325,376.5601242426448,44,0
1654.9114350515224,2767.550537109375,1.5021705627441406,132.5135044350742,376.560381600487,45,0
1654.9322684514113,2753.28076171875,1.4985367059707642,132.51343423479693,376.56109308692277,46,0
1654.953101851301,2743.805419921875,1.4962031841278076,132.5143814497981,376.56164654276716,47,0
1654.9739352516556,2736.8974609375,1.4951411485671997,132.5136266258662,376.56272528324763,48,0
1654.9947686520095,2727.285400390625,1.4921990633010864,132.51357130331044,376.56303761601174,49,0
1655.01560205283,2725.0732421875,1.4919356107711792,132.51398128902787,376.5628398390955,50,0
1655.0364354536505,2723.78662109375,1.491266131401062,132.5147154203375,376.5630434996948,51,0
1655.057268854471,2724.0068359375,1.491658329963684,132.51348564359932,376.56231785846546,52,0
1655.0781022557564,2730.69970703125,1.493349313735962,132.5137369460702,376.56361101341037,53,0
1655.0989356570421,2731.876708984375,1.4937424659729004,132.51444078326207,376.5633948857023,54,0
1655.119769058329,2734.345458984375,1.4937331676483154,132.5140575402645,376.56379392580936,55,0
1655.1406024596145,2738.823486328125,1.4950063228607178,132.51466892567012,376.5637626723524,56,0
1655.1614358613651,2739.149658203125,1.4947870969772339,132.51486281945,376.5639738939782,57,0
1655.182269263117,2727.838623046875,1.4927865266799927,132.51481192497027,376.56298836047995,58,0
1655.203102664869,2724.102294921875,1.4922200441360474,132.51456353032728,376.5646979729113,59,0
1655.2239360666204,2718.697021484375,1.4898277521133423,132.51487854513687,376.56504520158126,60,0
1655.2447694688376,2714.297119140625,1.4892542362213135,132.51584266832143,376.5651271420567,61,0
1655.2656028705892,2701.625732421875,1.4877372980117798,132.51586058524694,376.5639658204573,62,0
1655.2864362728064,2700.221923828125,1.4859727621078491,132.51535794086658,376.5625615895829,63,0
1655.307269675023,2715.299560546875,1.4891551733016968,132.51503953877528,376.56251052543604,64,0
1655.3281030772405,2721.955078125,1.4904898405075073,132.51492726606062,376.5608864208932,65,0
1655.348936479458,2735.477783203125,1.493778944015503,132.51444189874493,376.55912916638886,66,0
1655.369769881675,2729.580078125,1.4923654794692993,132.51528506237725,376.5596265683753,67,0
1655.3906032843583,2726.78564453125,1.49214506149292,132.5149774857251,376.5591110514415,68,0
1655.4114366865751,2721.5341796875,1.4904272556304932,132.51529333645752,376.5608086196571,69,0
1655.4322700887924,2718.43603515625,1.4904927015304565,132.5152889198591,376.5593227854797,70,0
1655.4531034914755,2719.284423828125,1.4903615713119507,132.51503630886492,376.5612745258677,71,0
1655.473936893692,2721.096923828125,1.4903342723846436,132.51473656047452,376.5608929046792,72,0
1655.494770296375,2723.7626953125,1.4909343719482422,132.5150201469417,376.5610135389743,73,0
1655.515603698593,2725.9873046875,1.4913928508758545,132.51537978911023,376.56194116523864,74,0
1655.53643710081,2729.629638671875,1.493765950202942,132.51530589291434,376.56246163542926,75,0
1655.5572705034924,2733.51904296875,1.4942164421081543,132.51558735707803,376.56231774428676,76,0
1655.578103905709,2734.30078125,1.4940377473831177,132.51535253724745,376.5629417753839,77,0
1655.598937307927,2735.53564453125,1.4941405057907104,132.51629161157845,376.5622905018709,78,0
1655.6197707106105,2733.61865234375,1.4936456680297852,132.51617998889336,376.56284298549724,79,0
1655.640604112827,2729.234375,1.4933457374572754,132.51500564364576,376.5629191361903,80,0
1655.6614375150443,2726.040283203125,1.4917060136795044,132.51668230063046,376.56325927306455,81,0
1655.682270917262,2720.291015625,1.490875244140625,132.51612019570086,376.56386621107004,82,0
1655.703104319479,2717.271484375,1.4897407293319702,132.51673238427796,376.56423610487167,83,0
1655.7239377212304,2712.071044921875,1.4880822896957397,132.51625927667314,376.56385325372327,84,0
1655.744771123447,2710.42041015625,1.4887405633926392,132.51639805305084,376.563535241142,85,0
1655.7656045251995,2709.235595703125,1.4873486757278442,132.5172864737039,376.5639774168383,86,0
1655.7864379269515,2710.25341796875,1.4876548051834106,132.51631382486826,376.5644051209608,87,0
1655.807271328702,2703.873291015625,1.4862594604492188,132.51635877532095,376.56402727658934,88,0
1655.8281047304536,2693.847900390625,1.4838787317276,132.51662545163808,376.56459948209175,89,0
1655.848938132204,2687.42138671875,1.481708288192749,132.5172543201209,376.56510853151775,90,0
1655.869771533491,2681.787841796875,1.480420708656311,132.5173324652698,376.5660705261719,91,0
1655.8906049347775,2673.32666015625,1.4786781072616577,132.51732720873693,376.5662511258046,92,0
1655.9114383360625,2668.81201171875,1.4772393703460693,132.5168136370514,376.5647888423626,93,0
1655.9322717373484,2672.431884765625,1.477945327758789,132.5173035481183,376.56420143974015,94,0
1655.953105138635,2679.80224609375,1.4798476696014404,132.51635332215184,376.5613655164183,95,0
1655.973938539455,2681.29345703125,1.480574607849121,132.5164882735183,376.5610148864866,96,0
1655.9947719402744,2679.822265625,1.4794225692749023,132.5158257347116,376.55970697811114,97,0
1656.0156053410951,2670.982666015625,1.477253794670105,132.5164332569037,376.56150162540575,98,0
1656.0364387414502,2660.07373046875,1.4744173288345337,132.5163805099681,376.5612580493044,99,0
1656.0572721418046,2652.926513671875,1.4730443954467773,132.51711359994817,376.5621067977792,100,0
1656.078105542159,2644.17041015625,1.4706480503082275,132.5172619796165,376.5627719513427,101,0
1656.0989389420474,2642.711181640625,1.4703787565231323,132.51665695879134,376.5619376611211,102,0
1656.119772342402,2642.830810546875,1.4706652164459229,132.5168678207507,376.5636726809659,103,0
1656.1406057422919,2638.4873046875,1.470251202583313,132.51650635906805,376.56429828455805,104,0
1656.1614391417145,2636.989990234375,1.4700510501861572,132.5176062212489,376.5638344981364,105,0
1656.182272541137,2635.689697265625,1.4698548316955566,132.5176803724787,376.5637565262739,106,0
1656.2031059405608,2634.28955078125,1.4684278964996338,132.5178057793986,376.5647299363766,107,0
1656.2239393399846,2628.36962890625,1.4682557582855225,132.51804405747012,376.56435008278993,108,0
1656.244772738942,2624.5283203125,1.465453028678894,132.5177608643964,376.56478056696943,109,0
1656.2656061374335,2617.12060546875,1.4638124704360962,132.5178099934644,376.5651535776194,110,0
1656.2864395363904,2608.68408203125,1.4616440534591675,132.5180507656874,376.5659648840402,111,0
1656.3072729348828,2593.02490234375,1.457322597503662,132.51841306822408,376.56684662410333,112,0
1656.3281063329096,2587.5283203125,1.456504464149475,132.51834393607558,376.56723872945986,113,0
1656.348939731401,2576.65625,1.4538012742996216,132.51824401098202,376.56704328431806,114,0
1656.3697731289615,2571.979248046875,1.4528571367263794,132.51872669574925,376.5673243139161,115,0
1656.3906065269875,2567.41796875,1.4512566328048706,132.517929219113,376.56637784724137,116,0
1656.411439924549,2562.502197265625,1.4507416486740112,132.51786119371658,376.56767486575137,117,0
1656.4322733216436,2559.75048828125,1.449451208114624,132.51904019919237,376.5673618406106,118,0
1656.4531067187381,2563.350341796875,1.4498491287231445,132.5190898208988,376.56824338398377,119,0
1656.473940115834,2564.58349609375,1.4503153562545776,132.51971127419836,376.56834232246763,120,0
1656.4947735124636,2565.38427734375,1.450729489326477,132.51869592000773,376.5682888229655,121,0
1656.515606909092,2570.516357421875,1.4517621994018555,132.51832752626478,376.5679067532163,122,0
1656.5364403052554,2581.05810546875,1.4544087648391724,132.51898155356207,376.5666151690681,123,0
1656.5572737014181,2594.505859375,1.4578830003738403,132.5182800409444,376.5658133463742,124,0
1656.578107097117,2619.30712890625,1.4642212390899658,132.5180108097155,376.56416370622225,125,0
1656.5989404928155,2635.087646484375,1.4680966138839722,132.5178958622459,376.5618747810567,126,0
1656.619773888047,2650.70703125,1.472474455833435,132.51699909903903,376.56073494265974,127,0
1656.6406072832785,2652.35693359375,1.4730441570281982,132.5177558487835,376.56087994407983,128,0
1656.661440678046,2641.125244140625,1.469679355621338,132.51660112188435,376.56060676929826,129,0
1656.682274072813,2637.72705078125,1.469293475151062,132.51774469577836,376.56216571810967,130,0
1656.7031074671136,2634.489013671875,1.4679498672485352,132.51754539278448,376.56243749922965,131,0
1656.7239408614141,2629.124755859375,1.4670478105545044,132.51863403812555,376.56292822986944,132,0
1656.7447742552495,2620.615966796875,1.4644533395767212,132.51843979011448,376.5627637228582,133,0
1656.765607649085,2616.22705078125,1.4630941152572632,132.51867408711368,376.56287174323114,134,0
1656.786441042455,2617.603271484375,1.4636976718902588,132.51800791348165,376.56304868265795,135,0
1656.807274435824,2613.562255859375,1.4628030061721802,132.51807758246474,376.5636556411021,136,0
1656.8281078287275,2607.45947265625,1.463295578956604,132.51795589745242,376.5640489828143,137,0
1656.8489412216325,2607.04052734375,1.460938572883606,132.5186938857537,376.5647691169813,138,0
1656.8697746140706,2601.102294921875,1.4597407579421997,132.51847926833904,376.5646114670247,139,0
1656.890608006043,2596.05322265625,1.4585217237472534,132.51896534553183,376.5649085469473,140,0
1656.9114413980155,2584.45703125,1.457166075706482,132.51844567641444,376.56557743217036,141,0
1656.9322747899873,2571.193359375,1.4534392356872559,132.5187859014502,376.5661126961809,142,0
1656.95310818103,2565.5556640625,1.4503015279769897,132.51891998832184,376.5667425828728,143,0
1656.9739415725364,2556.366943359375,1.4478431940078735,132.51893823813646,376.5670931494863,144,0
1656.994774963112,2542.78173828125,1.4444948434829712,132.51943559309373,376.5674548214663,145,0
1657.015608353688,2543.9638671875,1.4447182416915894,132.51896975127627,376.5670111235273,146,0
1657.036441744264,2536.35791015625,1.4427638053894043,132.51911163160142,376.56689904881375,147,0
1657.0572751343739,2530.54443359375,1.4413039684295654,132.51881921658332,376.5678525360561,148,0
1657.0781085240176,2527.581298828125,1.4406765699386597,132.51944569448796,376.56761893419406,149,0
1657.098941913662,2520.81689453125,1.4387004375457764,132.52001074354888,376.567842562119,150,0
1657.1197753028405,2519.736572265625,1.4383240938186646,132.51954709892343,376.567746078057,151,0
1657.140608691554,2527.8486328125,1.440299391746521,132.5190797472066,376.56790082410123,152,0
1657.161442080267,2530.822265625,1.4413256645202637,132.51960451360995,376.5679732676664,153,0
1657.1822754685136,2535.4150390625,1.4433695077896118,132.5194547503818,376.5666976647222,154,0
1657.203108856761,2551.494384765625,1.4468220472335815,132.5190363844488,376.56535330713916,155,0
1657.2239422445432,2565.816162109375,1.4514678716659546,132.5195489678325,376.5621465190389,156,0
1657.2447756318595,2577.763916015625,1.4538354873657227,132.51838294871033,376.56124079783524,157,0
1657.265609019175,2576.697998046875,1.453337550163269,132.51780696796664,376.56077371897607,158,0
1657.2864424060253,2569.606689453125,1.4513392448425293,132.5178011933178,376.5619823034612,159,0
1657.3072757924094,2551.80029296875,1.4465117454528809,132.51895792205525,376.56206072535724,160,0
1657.3281091787949,2542.78466796875,1.4442516565322876,132.51881969470523,376.5631947627545,161,0
1657.3697759506326,2518.702880859375,1.4378012418746948,132.5188385338319,376.56225741176337,162,0
1657.390609336086,2517.2119140625,1.4380210638046265,132.52004078366713,376.56399270161484,163,0
1657.473942874174,2495.783203125,1.4320216178894043,132.52026587227988,376.56492239644837,164,0
1657.5156096418204,2498.427001953125,1.4331859350204468,132.51983364630695,376.5644111817621,165,0
1657.536443024946,2502.838623046875,1.433891773223877,132.51998772975256,376.5658644232764,166,0
1657.5572764076064,2503.966796875,1.434410572052002,132.52015166754938,376.5667207198968,167,0
1657.5989431724583,2508.12353515625,1.4356266260147095,132.51998379484476,376.56473600820925,168,0
1657.6197765546526,2501.43896484375,1.4337074756622314,132.52013523661284,376.5660691004611,169,0
1657.6822766984394,2508.771484375,1.4355790615081787,132.52059093835612,376.56630371972244,170,0
1657.723943459102,2501.1181640625,1.4333109855651855,132.51997400088632,376.5673090307265,171,0
1657.744776839433,2498.803955078125,1.432895541191101,132.5208387782397,376.56610750592495,172,0
1657.765610218833,2498.33544921875,1.4327887296676636,132.52008019108817,376.5666885432117,173,0
1657.7864435982324,2476.157470703125,1.4271419048309326,132.52068841897545,376.5677864459497,174,0
1657.807276977166,2475.60498046875,1.4269542694091797,132.51944472222007,376.56539397428696,175,0
1657.828110355635,2486.059326171875,1.4297736883163452,132.51869182832905,376.5638182211176,176,0
1657.8489437341045,2506.26513671875,1.4351680278778076,132.51904477762855,376.5626650039715,177,0
1657.8697771121065,2519.4169921875,1.4384558200836182,132.51932791138202,376.56076501337463,178,0
1657.8906104896434,2535.71337890625,1.4426698684692383,132.51899811212522,376.5597800781839,179,0
1657.911443866714,2540.875244140625,1.4457308053970337,132.51860306463894,376.5600837863352,180,0
1657.9322772437865,2529.5361328125,1.440781831741333,132.51916003601977,376.5611340819112,181,0
1657.9531106203924,2520.24560546875,1.4384934902191162,132.51970955231104,376.5618067251475,182,0
1657.973943996532,2510.6787109375,1.435903549194336,132.5192684276343,376.56213038738827,183,0
1657.9947773726715,2505.296630859375,1.4345593452453613,132.51941345947233,376.56300097108715,184,0
1658.01561074788,2491.89794921875,1.430972695350647,132.51987948932938,376.5627078390965,185,0
1658.03644412309,2492.45458984375,1.4311918020248413,132.52040254502506,376.5638316436307,186,0
1658.0572774982988,2488.126708984375,1.4300345182418823,132.52036790059665,376.56363054632413,187,0
1658.078110872576,2484.7294921875,1.4290103912353516,132.5202437702482,376.5644705079425,188,0
1658.098944246854,2481.72412109375,1.4285166263580322,132.51928758102937,376.5646272083558,189,0
1658.1197776206654,2480.948974609375,1.428240418434143,132.52041477304542,376.56487885170264,190,0
1658.1406109940115,2477.6982421875,1.4276829957962036,132.52030245001995,376.56607604142897,191,0
1658.1614443668925,2478.90283203125,1.4277673959732056,132.52015967560624,376.56559702158427,192,0
1658.182277739772,2482.3212890625,1.4287831783294678,132.5199465694322,376.5648729324988,193,0
1658.2031111121873,2477.006103515625,1.4268609285354614,132.52068564315718,376.5651660433063,194,0
1658.2239444841362,2483.666015625,1.4288948774337769,132.52060955681534,376.565740114907,195,0
1658.2447778560854,2477.33544921875,1.4272937774658203,132.52015814070649,376.56514262208776,196,0
1658.2656112271036,2475.1142578125,1.4266369342803955,132.52025230546886,376.5642669786788,197,0
1658.286444598121,2473.66162109375,1.4261454343795776,132.52017221374643,376.56612430392147,198,0
1658.3072779686736,2472.736572265625,1.4266470670700073,132.52080412277286,376.56739764278984,199,0
1658.3281113387595,2465.92578125,1.4243491888046265,132.52140544582647,376.56550687633955,200,0
