time,flux,flux_err,centroid_col,centroid_row,cadenceno,quality
1517.410601239339,60928.6953125,6.756603717803955,882.5130904490944,1424.440731260145,0,0
1517.4314346936144,57322.875,6.552978038787842,882.5144545125964,1424.4370872986733,1,0
1517.452268150219,54739.421875,6.402856826782227,882.515373065087,1424.4342228257285,2,0
1517.4731016091519,52988.22265625,6.299140930175781,882.5162486541636,1424.4316786749118,3,0
1517.4939350699474,51584.234375,6.214503288269043,882.5169581170483,1424.430615061197,4,0
1517.514768532605,50335.2734375,6.138316631317139,882.5179309753427,1424.4291818222032,5,0
1517.5356019968926,49246.96875,6.071291446685791,882.5180045781689,1424.4276831481698,6,0
1517.55643546281,48379.93359375,6.017699718475342,882.5189829234954,1424.427062509694,7,0
1517.5772689298924,47631.19921875,5.970335960388184,882.5190730586496,1424.4256192824967,8,0
1517.5981023983713,46993.20703125,5.930045127868652,882.5196213531859,1424.4254244359288,9,0
1517.6189358677811,46426.34765625,5.893887996673584,882.5197819210451,1424.4243248609923,10,0
1517.6397693383556,45865.21875,5.8578972816467285,882.5201270987956,1424.4236979257157,11,0
1517.6606028098604,45373.3046875,5.826339244842529,882.520606400067,1424.423114314877,12,0
1517.681436282298,44880.9375,5.79478120803833,882.5206797803563,1424.4222768444636,13,0
1517.7022697552006,44442.71484375,5.7659807205200195,882.520836294264,1424.4218222457193,14,0
1517.7231032288005,44052.1328125,5.740506649017334,882.5214451387765,1424.4216716193687,15,0
1517.7439367030995,43634.265625,5.712937831878662,882.5217710072682,1424.420427963366,16,0
1517.7647701776325,43254.140625,5.688015937805176,882.5218259225544,1424.4198030174134,17,0
1517.7856036526305,42858.546875,5.661801815032959,882.5224740944685,1424.4194240719926,18,0
1517.8064371280939,42490.66015625,5.637324810028076,882.52282719024,1424.4192685175574,19,0
1517.8272706037906,42134.1171875,5.613535404205322,882.5228696561779,1424.4180090056548,20,0
1517.8481040794875,41837.2734375,5.593509674072266,882.5231910661677,1424.4173189567616,21,0
1517.86893755565,41580.89453125,5.576382637023926,882.5238032105904,1424.4170687756707,22,0
1517.8897710318115,41363.3125,5.5616607666015625,882.5238765755961,1424.416365371525,23,0
1517.9106045079734,41214.88671875,5.551678657531738,882.5243725459105,1424.4164727673965,24,0
1517.9314379841355,41068.3671875,5.541522026062012,882.5242842251802,1424.415580056008,25,0
1517.9522714602972,40963.6640625,5.534881114959717,882.5247687355925,1424.415793131451,26,0
1517.97310493646,40891.9375,5.529705047607422,882.5250270434575,1424.4152188322957,27,0
1517.9939384123895,40776.45703125,5.521821975708008,882.5251754684195,1424.4151781176772,28,0
1518.0147718883177,40657.6640625,5.513863563537598,882.5255640368773,1424.4150923195216,29,0
1518.035605364014,40604.1171875,5.510126113891602,882.5256565538401,1424.4147983304688,30,0
1518.056438839478,40530.21875,5.504985809326172,882.5258139759917,1424.414648283746,31,0
1518.0772723147084,40362.265625,5.493566989898682,882.5261231532004,1424.4145709414927,32,0
1518.098105789707,40291.0078125,5.488746166229248,882.526292724086,1424.4145669522647,33,0
1518.1189392644715,40199.9375,5.482552528381348,882.5263458266804,1424.4142904499618,34,0
1518.1397727387705,40088.546875,5.4749908447265625,882.5269865496964,1424.4141242559926,35,0
1518.1606062128376,39994.015625,5.468533039093018,882.5271015155784,1424.4136377752022,36,0
1518.181439686672,39928.84765625,5.463836669921875,882.5273290085831,1424.4134294426071,37,0
1518.2022731600396,39857.140625,5.459019660949707,882.5274805192921,1424.4133268740663,38,0
1518.2231066329418,39833.33984375,5.457275390625,882.5277603167887,1424.4128899732136,39,0
1518.243940105379,39780.5703125,5.453738212585449,882.527868725369,1424.4134540274943,40,0
1518.2647735775831,39732.0234375,5.450314044952393,882.5281372088674,1424.412304360718,41,0
1518.2856070490884,39735.109375,5.450562000274658,882.5285264586145,1424.4137827943212,42,0
1518.3064405203609,39663.515625,5.445743083953857,882.5281713555239,1424.41312652282,43,0
1518.327273991167,39665.25,5.445775032043457,882.5287849122894,1424.4128634887236,44,0
1518.348107461276,39648.0859375,5.444480895996094,882.5287464371605,1424.4125076355356,45,0
1518.3689409311523,39579.82421875,5.43993616104126,882.5289360602856,1424.4123826232292,46,0
1518.3897744003284,39555.5234375,5.4380669593811035,882.5293596402367,1424.4129729284805,47,0
1518.4314413370535,39442.9140625,5.430237770080566,882.529455296648,1424.4128381593018,48,0
1518.4522748046006,39461.703125,5.431652069091797,882.529723067143,1424.4124344350475,49,0
1518.473108271683,39418.7734375,5.428668975830078,882.529857506625,1424.4122364437908,50,0
1518.4939417380656,39457.3046875,5.431341648101807,882.5299927631429,1424.4122582929333,51,0
1518.5147752039825,39390.5703125,5.426793098449707,882.5303257561047,1424.4125693203064,52,0
1518.5356086692025,39412.65625,5.4282684326171875,882.5302188680666,1424.4119058137853,53,0
1518.5564421339564,39403.8046875,5.427799701690674,882.5306056363132,1424.4120798807498,54,0
1518.5772755980106,39377.51953125,5.4259138107299805,882.5307623668922,1424.4124709529995,55,0
1518.5981090615996,39357.1796875,5.424497127532959,882.53084419258,1424.412688051378,56,0
1518.6189425244906,39365.72265625,5.425130844116211,882.5309120204413,1424.4127282593865,57,0
1518.6397759866818,39400.94921875,5.427584171295166,882.5309737094889,1424.411932307409,58,0
1518.6606094484096,39344.30078125,5.423445701599121,882.5311857727171,1424.4122777495868,59,0
1518.6814429092046,39332.0703125,5.4226765632629395,882.5309872072826,1424.412429523856,60,0
1518.7022763695336,39350.828125,5.424101829528809,882.5313246862261,1424.4114318268994,61,0
1518.723109829397,39325.13671875,5.422382831573486,882.5320350870919,1424.412674607278,62,0
1518.7439432883305,39384.953125,5.426420211791992,882.5314668474675,1424.4121184198677,63,0
1518.7647767467975,39362.71875,5.4248504638671875,882.5317703259826,1424.4122811098025,64,0
1518.785610204333,39377.0078125,5.425716876983643,882.5316197418108,1424.4121416824578,65,0
1518.8064436614027,39352.76171875,5.4241204261779785,882.5315109763877,1424.4122492867252,66,0
1518.827277117774,39369.76953125,5.425287246704102,882.5317673399273,1424.412320793407,67,0
1518.8481105734481,39378.26953125,5.426003932952881,882.531763756323,1424.4125230251218,68,0
1518.8689440286555,39384.46484375,5.426509857177734,882.5324381847498,1424.4122972473979,69,0
1518.8897774829306,39365.3046875,5.425234794616699,882.5319032424452,1424.4126342170762,70,0
1518.9106109365075,39393.40234375,5.4269022941589355,882.5324116129852,1424.4125486094742,71,0
1518.9314443896196,39384.84375,5.4263529777526855,882.5319323938857,1424.4112112472874,72,0
1518.9522778418004,39361.21875,5.424653053283691,882.5325873728424,1424.4130458929474,73,0
1518.9731112932814,39380.0234375,5.426200866699219,882.5324381482679,1424.4122247151802,74,0
1518.993944744298,39371.390625,5.4253315925598145,882.532617672493,1424.4128634782594,75,0
1519.0147781943833,39398.41015625,5.427332878112793,882.53254327561,1424.4118712703846,76,0
1519.0356116437695,39382.4453125,5.426328182220459,882.5323923621188,1424.4120854107348,77,0
1519.0564450926909,39381.56640625,5.42618465423584,882.5325947131238,1424.4123054974661,78,0
1519.0772785406805,39395.5703125,5.427074432373047,882.5325907864006,1424.4125810489281,79,0
1519.0981119879712,39379.61328125,5.426004886627197,882.532862617981,1424.4119939667783,80,0
1519.1189454345626,39394.390625,5.426967144012451,882.5331313775637,1424.412297604632,81,0
1519.1397788804575,39375.56640625,5.425743579864502,882.5329503444643,1424.4119129982753,82,0
1519.1606123256533,39387.63671875,5.426628589630127,882.5330222889777,1424.411818144177,83,0
1519.1814457701498,39384.0234375,5.426460266113281,882.5330921931582,1424.4119137752161,84,0
1519.2022792139485,39387.97265625,5.426637649536133,882.5328007012769,1424.4123703762878,85,0
1519.2231126568165,39366.38671875,5.4251604080200195,882.5328854426986,1424.4114805743716,86,0
1519.243946099218,39380.4296875,5.426074981689453,882.533118300155,1424.4125740349298,87,0
1519.2647795406879,39388.94140625,5.426581859588623,882.5332040917259,1424.411911980272,88,0
1519.28561298146,39391.6796875,5.4267425537109375,882.5330712089224,1424.4118768760654,89,0
1519.3064464217655,39397.7421875,5.4271321296691895,882.5330783400699,1424.4118253202366,90,0
1519.3272798611401,39390.015625,5.426620960235596,882.5333132384833,1424.4119420877594,91,0
1519.348113299584,39366.68359375,5.425163269042969,882.5331031474802,1424.4124128747035,92,0
1519.368946737562,39397.6875,5.427234172821045,882.5330947951815,1424.4118852946635,93,0
1519.3897801748403,39395.71484375,5.427128314971924,882.5337772201788,1424.412563782169,94,0
1519.4106136111886,39400.109375,5.427373886108398,882.533159236352,1424.4119667165621,95,0
1519.431447046839,39379.328125,5.425963878631592,882.5336419121787,1424.412172079696,96,0
1519.4522804817893,39379.7265625,5.4258713722229,882.5333610499137,1424.4117813982648,97,0
1519.4731139160415,39383.1015625,5.426207065582275,882.5335533145263,1424.413017190213,98,0
1519.4939473495956,39400.0625,5.427424907684326,882.533386239473,1424.4122202822093,99,0
1519.514780782219,39407.359375,5.4279890060424805,882.5335385581928,1424.4122147408816,100,0
1519.5356142141432,39403.8515625,5.427675724029541,882.5335372315484,1424.4127138710662,101,0
1519.5564476453685,39372.921875,5.4255051612854,882.5338970767108,1424.412446333973,102,0
1519.5772810758954,39400.09375,5.4274797439575195,882.5336538003954,1424.4122680273008,103,0
1519.5981145057235,39392.4765625,5.426973819732666,882.5335900513998,1424.4126429028424,104,0
1519.618947934854,39371.84765625,5.425503253936768,882.5338655832862,1424.4123786745624,105,0
1519.6397813630535,39389.68359375,5.426651477813721,882.533733625526,1424.412889144316,106,0
1519.6606147905545,39406.19921875,5.42783784866333,882.5337607245132,1424.412730285041,107,0
1519.6814482173554,39404.47265625,5.427875995635986,882.534480763159,1424.4131868928466,108,0
1519.7022816432254,39390.61328125,5.4267964363098145,882.5340547998973,1424.4124788885797,109,0
1519.723115068631,39390.76171875,5.426782131195068,882.5340223680303,1424.4118658106602,110,0
1519.7439484931056,39408.19921875,5.428003787994385,882.5340799954483,1424.412436057138,111,0
1519.7647819168797,39389.95703125,5.426595211029053,882.5336647666278,1424.411164300783,112,0
1519.7856153399562,39394.546875,5.4271626472473145,882.5338978546761,1424.4123881854682,113,0
1519.8064487621014,39385.01953125,5.426549434661865,882.5337165691468,1424.411998534103,114,0
1519.827282183548,39400.83984375,5.427482604980469,882.534061079956,1424.412060909433,115,0
1519.8481156045295,39406.9921875,5.42794942855835,882.5340755130504,1424.412130112042,116,0
1519.8689490243464,39374.515625,5.425536632537842,882.534272197396,1424.412003753816,117,0
1519.8897824436976,39379.39453125,5.425983428955078,882.5341413284727,1424.4122343736437,118,0
1519.9106158621175,39381.71875,5.426159858703613,882.5339314620918,1424.4118385553259,119,0
1519.9314492798394,39410.2265625,5.428234100341797,882.5338918019573,1424.412029062194,120,0
1519.9522826968619,39398.8671875,5.427460193634033,882.5335145561569,1424.4119169332876,121,0
1519.9731161131865,39383.671875,5.426309585571289,882.5342021400049,1424.4126357091989,122,0
1519.9939495285794,39402.390625,5.427850246429443,882.5339896492638,1424.4123276422195,123,0
1520.0147829435068,39393.27734375,5.427060127258301,882.5347433468136,1424.4131347041389,124,0
1520.035616357271,39392.11328125,5.4268341064453125,882.5343622974975,1424.4120420479949,125,0
1520.0564497705686,39398.74609375,5.427207946777344,882.5339882079052,1424.4118048252449,126,0
1520.0772831831669,39395.28125,5.427210330963135,882.5342739384635,1424.4116545450993,127,0
1520.0981165948347,39390.2578125,5.426815986633301,882.5337385632115,1424.411604379791,128,0
1520.118950005804,39409.08203125,5.428061008453369,882.5342805954172,1424.4124186901715,129,0
1520.1397834158433,39412.41015625,5.4281840324401855,882.5342043824037,1424.4119890259026,130,0
1520.1606168254143,39392.671875,5.426844596862793,882.5338958487282,1424.4119757784304,131,0
1520.1814502340553,39404.82421875,5.427951335906982,882.533937860559,1424.412212934449,132,0
1520.202283641999,39394.453125,5.426973342895508,882.5340595370541,1424.4121489705483,133,0
1520.2231170492437,39396.078125,5.42716121673584,882.5337617630482,1424.4119634469484,134,0
1520.2439504555555,39388.70703125,5.426483631134033,882.534272121937,1424.4120188220193,135,0
1520.2647838611697,39398.23828125,5.427434921264648,882.5347258597084,1424.413130013844,136,0
1520.285617266085,39398.40234375,5.427256107330322,882.5341376469601,1424.4117922448077,137,0
1520.306450670303,39402.0859375,5.427515029907227,882.5340667441662,1424.4121524315515,138,0
1520.327284073589,39393.9296875,5.426948547363281,882.5342230312689,1424.4116002986063,139,0
1520.3481174761755,39395.2265625,5.42705774307251,882.533940080185,1424.411896349276,140,0
1520.3689508780649,39400.69921875,5.427415370941162,882.5337391399006,1424.4119619868143,141,0
1520.3897842792553,39394.62890625,5.42704439163208,882.5340317698766,1424.411945719024,142,0
1520.4106176795149,39405.68359375,5.427680969238281,882.5340124833277,1424.4117320282658,143,0
1520.4314510790755,39388.09765625,5.426443576812744,882.5340197600937,1424.4120973450001,144,0
1520.4522844779376,39393.7890625,5.4270830154418945,882.5338047271094,1424.412124583904,145,0
1520.4731178761017,39414.71875,5.42836856842041,882.5345283646417,1424.4126213260274,146,0
1520.4939512733336,39389.18359375,5.4267048835754395,882.5348524752641,1424.4125119463415,147,0
1520.5356180657027,39371.60546875,5.425334930419922,882.5340095291946,1424.412192405278,148,0
1520.556451460839,39345.875,5.4236602783203125,882.5338565907481,1424.411903226732,149,0
1520.5772848550446,39357.4453125,5.424417972564697,882.5336058060012,1424.412127043545,150,0
1520.598118248552,39374.73828125,5.425848484039307,882.5342395381001,1424.4120860971993,151,0
1520.6189516413606,39381.8203125,5.426191329956055,882.533803990896,1424.4118219577244,152,0
1520.639785033238,39373.55078125,5.425473690032959,882.5340858279606,1424.412545702327,153,0
1520.6606184246493,39358.9375,5.424492359161377,882.5344918730736,1424.4128763886617,154,0
1520.6814518151295,39346.43359375,5.423762798309326,882.5337586683672,1424.4119691448766,155,0
1520.702285204678,39350.46484375,5.42385721206665,882.5339468472368,1424.4121473782423,156,0
1520.7231185937617,39363.55859375,5.425061225891113,882.5338608559967,1424.4117473098086,157,0
1520.743951981914,39352.1171875,5.424190998077393,882.5340936230599,1424.4124554850428,158,0
1520.764785369367,39385.6015625,5.426499366760254,882.5337100209329,1424.4123583317944,159,0
1520.7856187561215,39365.15234375,5.424976825714111,882.5339518445039,1424.4124706188918,160,0
1520.806452141945,39382.375,5.426326751708984,882.5347563373051,1424.4127012222314,161,0
1520.8272855270711,39388.38671875,5.426544189453125,882.5339893867432,1424.4124478463523,162,0
1520.8481189114975,39365.609375,5.42496919631958,882.5337667584611,1424.4121803577957,163,0
1520.8689522952254,39372.7890625,5.425459384918213,882.5339195881436,1424.4122010844062,164,0
1520.889785678022,39381.1484375,5.426008701324463,882.5334679634351,1424.4119541750129,165,0
1520.9106190601206,39383.3359375,5.426352024078369,882.5338607382128,1424.4120521136697,166,0
1520.9314524415208,39384.6640625,5.426290988922119,882.5338030626214,1424.4121444920165,167,0
1520.952285822222,39383.59765625,5.4263129234313965,882.5345950502276,1424.4129662015268,168,0
1520.9731192019915,39390.625,5.426915168762207,882.5337234728282,1424.4121037038874,169,0
1520.993952581063,39365.84375,5.425081253051758,882.533611461832,1424.412361168113,170,0
1521.0147859594365,39370.45703125,5.425358295440674,882.5336819119111,1424.411993603528,171,0
1521.035619336878,39373.0078125,5.425490379333496,882.5336724625948,1424.4119285673185,172,0
1521.0564527136216,39382.73046875,5.426321029663086,882.5338387929592,1424.4120189473713,173,0
1521.0772860896654,39404.71484375,5.427752494812012,882.5333689149468,1424.4124830968335,174,0
1521.0981194650121,39396.77734375,5.4272050857543945,882.5344660319317,1424.4133523745547,175,0
1521.1189528394266,39395.62890625,5.4270734786987305,882.53369016193,1424.4118654700846,176,0
1521.1397862133758,39379.171875,5.425939083099365,882.5337690163384,1424.412298639886,177,0
1521.1606195861614,39378.8125,5.4260077476501465,882.5335560515173,1424.4116111748506,178,0
1521.1814529584803,39378.06640625,5.425928115844727,882.5336839591362,1424.4117131875146,179,0
1521.2022863298685,39398.5390625,5.42736291885376,882.5339280307229,1424.4113900509478,180,0
1521.2231197005585,39371.8125,5.425350189208984,882.5335851840784,1424.4120488821318,181,0
1521.2439530705497,39366.671875,5.425012588500977,882.5339027560194,1424.4121535303896,182,0
1521.2647864398425,39383.71875,5.42648458480835,882.5344211728118,1424.4125258672882,183,0
1521.2856198082036,39373.03125,5.425562381744385,882.5338271873911,1424.4121740685248,184,0
1521.3064531758664,39384.69921875,5.4265055656433105,882.5334883034268,1424.412022700658,185,0
1521.3272865428305,39372.08984375,5.425492763519287,882.533730965235,1424.4122010133685,186,0
1521.3481199088628,39405.515625,5.4280104637146,882.5331847728725,1424.411716745415,187,0
1521.3689532741973,39385.63671875,5.426458835601807,882.5335696021799,1424.4124693299618,188,0
1521.3897866388338,39387.41796875,5.426516532897949,882.5342914422129,1424.4123828655624,189,0
1521.4106200027713,39407.953125,5.428060531616211,882.533581543264,1424.4124181389464,190,0
1521.4314533657775,39390.28515625,5.426860332489014,882.5333764531686,1424.4119744116197,191,0
1521.452286728318,39390.7890625,5.426908016204834,882.5335046700519,1424.41184681946,192,0
1521.4731200896945,39394.5546875,5.426872730255127,882.5332274963446,1424.4119603647237,193,0
1521.4939534506052,39391.5546875,5.4269118309021,882.5334989862397,1424.4127054270239,194,0
1521.5147868105846,39398.9453125,5.427541255950928,882.5341174464338,1424.412524513862,195,0
1521.535620169865,39384.34375,5.4264326095581055,882.5335047476829,1424.412348019696,196,0
1521.5564535284466,39378.25,5.4259934425354,882.5332144955893,1424.4122241968719,197,0
1521.577286886099,39389.8359375,5.426958084106445,882.5329597290624,1424.411795411808,198,0
1521.598120243285,39380.33203125,5.426031112670898,882.5330801930096,1424.4120351137965,199,0
1521.6189535995386,39381.19140625,5.4261322021484375,882.5338996794651,1424.4128486864913,200,0
1521.6397869548605,39373.44140625,5.425480365753174,882.5335457226928,1424.4121202441445,201,0
1521.6606203097176,39391.90625,5.426769733428955,882.5333108215044,1424.4120831973137,202,0
1521.681453663644,39375.39453125,5.425751209259033,882.5331329765446,1424.4121721597828,203,0
1521.7022870166395,39381.29296875,5.426094055175781,882.5329393784386,1424.4116426928197,204,0
1521.7231203691676,39396.8671875,5.4271039962768555,882.5338487861602,1424.4129580739784,205,0
1521.7439537207647,39382.328125,5.426244735717773,882.5338807975817,1424.4122021908422,206,0
1521.7647870716623,39372.421875,5.425700664520264,882.5329662954122,1424.4124609473438,207,0
1521.7856204218629,39382.63671875,5.426144599914551,882.5332668366403,1424.4117623020536,208,0
1521.806453771133,39383.8671875,5.4262800216674805,882.5333110747878,1424.412341317977,209,0
